 energy           1
 state =            1
 j12=           0
 m12=           0
          ANGLE,deg DIFF. CROSS.,angs^2
      0.0000000E+00       0.3894855E+05
      0.9004502E-01       0.3883261E+05
      0.1800900E+00       0.3848663E+05
      0.2701351E+00       0.3791611E+05
      0.3601801E+00       0.3713007E+05
      0.4502251E+00       0.3614083E+05
      0.5402701E+00       0.3496375E+05
      0.6303152E+00       0.3361684E+05
      0.7203602E+00       0.3212040E+05
      0.8104052E+00       0.3049652E+05
      0.9004502E+00       0.2876861E+05
      0.9904952E+00       0.2696089E+05
      0.1080540E+01       0.2509792E+05
      0.1170585E+01       0.2320403E+05
      0.1260630E+01       0.2130290E+05
      0.1350675E+01       0.1941710E+05
      0.1440720E+01       0.1756769E+05
      0.1530765E+01       0.1577388E+05
      0.1620810E+01       0.1405273E+05
      0.1710855E+01       0.1241896E+05
      0.1800900E+01       0.1088478E+05
      0.1890945E+01       0.9459805E+04
      0.1980990E+01       0.8151040E+04
      0.2071036E+01       0.6962938E+04
      0.2161081E+01       0.5897495E+04
      0.2251126E+01       0.4954405E+04
      0.2341171E+01       0.4131262E+04
      0.2431216E+01       0.3423794E+04
      0.2521261E+01       0.2826122E+04
      0.2611306E+01       0.2331038E+04
      0.2701351E+01       0.1930289E+04
      0.2791396E+01       0.1614863E+04
      0.2881441E+01       0.1375265E+04
      0.2971486E+01       0.1201777E+04
      0.3061531E+01       0.1084699E+04
      0.3151576E+01       0.1014562E+04
      0.3241621E+01       0.9823185E+03
      0.3331666E+01       0.9794895E+03
      0.3421711E+01       0.9982923E+03
      0.3511756E+01       0.1031728E+04
      0.3601801E+01       0.1073641E+04
      0.3691846E+01       0.1118749E+04
      0.3781891E+01       0.1162646E+04
      0.3871936E+01       0.1201784E+04
      0.3961981E+01       0.1233431E+04
      0.4052026E+01       0.1255617E+04
      0.4142071E+01       0.1267065E+04
      0.4232116E+01       0.1267116E+04
      0.4322161E+01       0.1255647E+04
      0.4412206E+01       0.1232986E+04
      0.4502251E+01       0.1199827E+04
      0.4592296E+01       0.1157156E+04
      0.4682341E+01       0.1106170E+04
      0.4772386E+01       0.1048208E+04
      0.4862431E+01       0.9846952E+03
      0.4952476E+01       0.9170811E+03
      0.5042521E+01       0.8467996E+03
      0.5132566E+01       0.7752287E+03
      0.5222611E+01       0.7036607E+03
      0.5312656E+01       0.6332797E+03
      0.5402701E+01       0.5651444E+03
      0.5492746E+01       0.5001776E+03
      0.5582791E+01       0.4391605E+03
      0.5672836E+01       0.3827307E+03
      0.5762881E+01       0.3313838E+03
      0.5852926E+01       0.2854781E+03
      0.5942971E+01       0.2452412E+03
      0.6033017E+01       0.2107776E+03
      0.6123062E+01       0.1820787E+03
      0.6213107E+01       0.1590323E+03
      0.6303152E+01       0.1414338E+03
      0.6393197E+01       0.1289967E+03
      0.6483242E+01       0.1213639E+03
      0.6573287E+01       0.1181192E+03
      0.6663332E+01       0.1187982E+03
      0.6753377E+01       0.1228991E+03
      0.6843422E+01       0.1298943E+03
      0.6933467E+01       0.1392404E+03
      0.7023512E+01       0.1503889E+03
      0.7113557E+01       0.1627958E+03
      0.7203602E+01       0.1759315E+03
      0.7293647E+01       0.1892891E+03
      0.7383692E+01       0.2023930E+03
      0.7473737E+01       0.2148058E+03
      0.7563782E+01       0.2261349E+03
      0.7653827E+01       0.2360378E+03
      0.7743872E+01       0.2442262E+03
      0.7833917E+01       0.2504694E+03
      0.7923962E+01       0.2545956E+03
      0.8014007E+01       0.2564929E+03
      0.8104052E+01       0.2561085E+03
      0.8194097E+01       0.2534468E+03
      0.8284142E+01       0.2485662E+03
      0.8374187E+01       0.2415758E+03
      0.8464232E+01       0.2326296E+03
      0.8554277E+01       0.2219212E+03
      0.8644322E+01       0.2096775E+03
      0.8734367E+01       0.1961516E+03
      0.8824412E+01       0.1816161E+03
      0.8914457E+01       0.1663555E+03
      0.9004502E+01       0.1506593E+03
      0.9094547E+01       0.1348152E+03
      0.9184592E+01       0.1191022E+03
      0.9274637E+01       0.1037851E+03
      0.9364682E+01       0.8910899E+02
      0.9454727E+01       0.7529452E+02
      0.9544772E+01       0.6253437E+02
      0.9634817E+01       0.5099018E+02
      0.9724862E+01       0.4079062E+02
      0.9814907E+01       0.3203018E+02
      0.9904952E+01       0.2476893E+02
      0.9994997E+01       0.1903305E+02
      0.1008504E+02       0.1481606E+02
      0.1017509E+02       0.1208080E+02
      0.1026513E+02       0.1076195E+02
      0.1035518E+02       0.1076902E+02
      0.1044522E+02       0.1198974E+02
      0.1053527E+02       0.1429369E+02
      0.1062531E+02       0.1753617E+02
      0.1071536E+02       0.2156200E+02
      0.1080540E+02       0.2620946E+02
      0.1089545E+02       0.3131399E+02
      0.1098549E+02       0.3671174E+02
      0.1107554E+02       0.4224291E+02
      0.1116558E+02       0.4775475E+02
      0.1125563E+02       0.5310419E+02
      0.1134567E+02       0.5816019E+02
      0.1143572E+02       0.6280558E+02
      0.1152576E+02       0.6693859E+02
      0.1161581E+02       0.7047399E+02
      0.1170585E+02       0.7334374E+02
      0.1179590E+02       0.7549738E+02
      0.1188594E+02       0.7690202E+02
      0.1197599E+02       0.7754198E+02
      0.1206603E+02       0.7741819E+02
      0.1215608E+02       0.7654724E+02
      0.1224612E+02       0.7496028E+02
      0.1233617E+02       0.7270166E+02
      0.1242621E+02       0.6982742E+02
      0.1251626E+02       0.6640364E+02
      0.1260630E+02       0.6250467E+02
      0.1269635E+02       0.5821137E+02
      0.1278639E+02       0.5360920E+02
      0.1287644E+02       0.4878638E+02
      0.1296648E+02       0.4383211E+02
      0.1305653E+02       0.3883474E+02
      0.1314657E+02       0.3388012E+02
      0.1323662E+02       0.2905003E+02
      0.1332666E+02       0.2442076E+02
      0.1341671E+02       0.2006183E+02
      0.1350675E+02       0.1603491E+02
      0.1359680E+02       0.1239289E+02
      0.1368684E+02       0.9179230E+01
      0.1377689E+02       0.6427441E+01
      0.1386693E+02       0.4160834E+01
      0.1395698E+02       0.2392454E+01
      0.1404702E+02       0.1125239E+01
      0.1413707E+02       0.3523613E+00
      0.1422711E+02       0.5776599E-01
      0.1431716E+02       0.2168650E+00
      0.1440720E+02       0.7973831E+00
      0.1449725E+02       0.1760324E+01
      0.1458729E+02       0.3061034E+01
      0.1467734E+02       0.4650338E+01
      0.1476738E+02       0.6475716E+01
      0.1485743E+02       0.8482499E+01
      0.1494747E+02       0.1061506E+02
      0.1503752E+02       0.1281796E+02
      0.1512756E+02       0.1503705E+02
      0.1521761E+02       0.1722047E+02
      0.1530765E+02       0.1931962E+02
      0.1539770E+02       0.2128992E+02
      0.1548774E+02       0.2309151E+02
      0.1557779E+02       0.2468987E+02
      0.1566783E+02       0.2605615E+02
      0.1575788E+02       0.2716758E+02
      0.1584792E+02       0.2800750E+02
      0.1593797E+02       0.2856551E+02
      0.1602801E+02       0.2883728E+02
      0.1611806E+02       0.2882441E+02
      0.1620810E+02       0.2853405E+02
      0.1629815E+02       0.2797856E+02
      0.1638819E+02       0.2717496E+02
      0.1647824E+02       0.2614444E+02
      0.1656828E+02       0.2491172E+02
      0.1665833E+02       0.2350440E+02
      0.1674837E+02       0.2195236E+02
      0.1683842E+02       0.2028702E+02
      0.1692846E+02       0.1854073E+02
      0.1701851E+02       0.1674609E+02
      0.1710855E+02       0.1493532E+02
      0.1719860E+02       0.1313971E+02
      0.1728864E+02       0.1138905E+02
      0.1737869E+02       0.9711128E+01
      0.1746873E+02       0.8131329E+01
      0.1755878E+02       0.6672246E+01
      0.1764882E+02       0.5353381E+01
      0.1773887E+02       0.4190905E+01
      0.1782891E+02       0.3197495E+01
      0.1791896E+02       0.2382236E+01
      0.1800900E+02       0.1750590E+01
      0.1809905E+02       0.1304432E+01
      0.1818909E+02       0.1042151E+01
      0.1827914E+02       0.9588063E+00
      0.1836918E+02       0.1046342E+01
      0.1845923E+02       0.1293848E+01
      0.1854927E+02       0.1687865E+01
      0.1863932E+02       0.2212730E+01
      0.1872936E+02       0.2850939E+01
      0.1881941E+02       0.3583552E+01
      0.1890945E+02       0.4390593E+01
      0.1899950E+02       0.5251465E+01
      0.1908954E+02       0.6145370E+01
      0.1917959E+02       0.7051708E+01
      0.1926963E+02       0.7950467E+01
      0.1935968E+02       0.8822587E+01
      0.1944972E+02       0.9650296E+01
      0.1953977E+02       0.1041741E+02
      0.1962981E+02       0.1110958E+02
      0.1971986E+02       0.1171452E+02
      0.1980990E+02       0.1222215E+02
      0.1989995E+02       0.1262474E+02
      0.1998999E+02       0.1291694E+02
      0.2008004E+02       0.1309580E+02
      0.2017009E+02       0.1316074E+02
      0.2026013E+02       0.1311346E+02
      0.2035018E+02       0.1295780E+02
      0.2044022E+02       0.1269958E+02
      0.2053027E+02       0.1234641E+02
      0.2062031E+02       0.1190744E+02
      0.2071036E+02       0.1139311E+02
      0.2080040E+02       0.1081491E+02
      0.2089045E+02       0.1018506E+02
      0.2098049E+02       0.9516265E+01
      0.2107054E+02       0.8821443E+01
      0.2116058E+02       0.8113439E+01
      0.2125063E+02       0.7404795E+01
      0.2134067E+02       0.6707513E+01
      0.2143072E+02       0.6032851E+01
      0.2152076E+02       0.5391144E+01
      0.2161081E+02       0.4791651E+01
      0.2170085E+02       0.4242437E+01
      0.2179090E+02       0.3750277E+01
      0.2188094E+02       0.3320598E+01
      0.2197099E+02       0.2957445E+01
      0.2206103E+02       0.2663479E+01
      0.2215108E+02       0.2439998E+01
      0.2224112E+02       0.2286981E+01
      0.2233117E+02       0.2203159E+01
      0.2242121E+02       0.2186095E+01
      0.2251126E+02       0.2232287E+01
      0.2260130E+02       0.2337285E+01
      0.2269135E+02       0.2495806E+01
      0.2278139E+02       0.2701873E+01
      0.2287144E+02       0.2948945E+01
      0.2296148E+02       0.3230056E+01
      0.2305153E+02       0.3537949E+01
      0.2314157E+02       0.3865216E+01
      0.2323162E+02       0.4204423E+01
      0.2332166E+02       0.4548237E+01
      0.2341171E+02       0.4889545E+01
      0.2350175E+02       0.5221562E+01
      0.2359180E+02       0.5537934E+01
      0.2368184E+02       0.5832822E+01
      0.2377189E+02       0.6100985E+01
      0.2386193E+02       0.6337848E+01
      0.2395198E+02       0.6539552E+01
      0.2404202E+02       0.6702996E+01
      0.2413207E+02       0.6825871E+01
      0.2422211E+02       0.6906667E+01
      0.2431216E+02       0.6944682E+01
      0.2440220E+02       0.6940007E+01
      0.2449225E+02       0.6893501E+01
      0.2458229E+02       0.6806760E+01
      0.2467234E+02       0.6682062E+01
      0.2476238E+02       0.6522312E+01
      0.2485243E+02       0.6330974E+01
      0.2494247E+02       0.6111987E+01
      0.2503252E+02       0.5869690E+01
      0.2512256E+02       0.5608721E+01
      0.2521261E+02       0.5333930E+01
      0.2530265E+02       0.5050279E+01
      0.2539270E+02       0.4762744E+01
      0.2548274E+02       0.4476220E+01
      0.2557279E+02       0.4195432E+01
      0.2566283E+02       0.3924843E+01
      0.2575288E+02       0.3668579E+01
      0.2584292E+02       0.3430353E+01
      0.2593297E+02       0.3213411E+01
      0.2602301E+02       0.3020478E+01
      0.2611306E+02       0.2853721E+01
      0.2620310E+02       0.2714727E+01
      0.2629315E+02       0.2604489E+01
      0.2638319E+02       0.2523410E+01
      0.2647324E+02       0.2471314E+01
      0.2656328E+02       0.2447476E+01
      0.2665333E+02       0.2450656E+01
      0.2674337E+02       0.2479144E+01
      0.2683342E+02       0.2530820E+01
      0.2692346E+02       0.2603211E+01
      0.2701351E+02       0.2693557E+01
      0.2710355E+02       0.2798883E+01
      0.2719360E+02       0.2916066E+01
      0.2728364E+02       0.3041906E+01
      0.2737369E+02       0.3173197E+01
      0.2746373E+02       0.3306785E+01
      0.2755378E+02       0.3439634E+01
      0.2764382E+02       0.3568875E+01
      0.2773387E+02       0.3691853E+01
      0.2782391E+02       0.3806169E+01
      0.2791396E+02       0.3909710E+01
      0.2800400E+02       0.4000670E+01
      0.2809405E+02       0.4077572E+01
      0.2818409E+02       0.4139269E+01
      0.2827414E+02       0.4184951E+01
      0.2836418E+02       0.4214136E+01
      0.2845423E+02       0.4226661E+01
      0.2854427E+02       0.4222662E+01
      0.2863432E+02       0.4202558E+01
      0.2872436E+02       0.4167026E+01
      0.2881441E+02       0.4116970E+01
      0.2890445E+02       0.4053500E+01
      0.2899450E+02       0.3977894E+01
      0.2908454E+02       0.3891574E+01
      0.2917459E+02       0.3796074E+01
      0.2926463E+02       0.3693007E+01
      0.2935468E+02       0.3584042E+01
      0.2944472E+02       0.3470872E+01
      0.2953477E+02       0.3355188E+01
      0.2962481E+02       0.3238658E+01
      0.2971486E+02       0.3122899E+01
      0.2980490E+02       0.3009458E+01
      0.2989495E+02       0.2899794E+01
      0.2998499E+02       0.2795258E+01
      0.3007504E+02       0.2697080E+01
      0.3016508E+02       0.2606352E+01
      0.3025513E+02       0.2524019E+01
      0.3034517E+02       0.2450866E+01
      0.3043522E+02       0.2387517E+01
      0.3052526E+02       0.2334419E+01
      0.3061531E+02       0.2291849E+01
      0.3070535E+02       0.2259905E+01
      0.3079540E+02       0.2238514E+01
      0.3088544E+02       0.2227430E+01
      0.3097549E+02       0.2226243E+01
      0.3106553E+02       0.2234388E+01
      0.3115558E+02       0.2251158E+01
      0.3124562E+02       0.2275711E+01
      0.3133567E+02       0.2307096E+01
      0.3142571E+02       0.2344261E+01
      0.3151576E+02       0.2386079E+01
      0.3160580E+02       0.2431370E+01
      0.3169585E+02       0.2478918E+01
      0.3178589E+02       0.2527497E+01
      0.3187594E+02       0.2575896E+01
      0.3196598E+02       0.2622938E+01
      0.3205603E+02       0.2667505E+01
      0.3214607E+02       0.2708556E+01
      0.3223612E+02       0.2745151E+01
      0.3232616E+02       0.2776459E+01
      0.3241621E+02       0.2801779E+01
      0.3250625E+02       0.2820551E+01
      0.3259630E+02       0.2832357E+01
      0.3268634E+02       0.2836934E+01
      0.3277639E+02       0.2834168E+01
      0.3286643E+02       0.2824095E+01
      0.3295648E+02       0.2806896E+01
      0.3304652E+02       0.2782885E+01
      0.3313657E+02       0.2752498E+01
      0.3322661E+02       0.2716282E+01
      0.3331666E+02       0.2674877E+01
      0.3340670E+02       0.2628997E+01
      0.3349675E+02       0.2579416E+01
      0.3358679E+02       0.2526942E+01
      0.3367684E+02       0.2472407E+01
      0.3376688E+02       0.2416642E+01
      0.3385693E+02       0.2360462E+01
      0.3394697E+02       0.2304651E+01
      0.3403702E+02       0.2249943E+01
      0.3412706E+02       0.2197019E+01
      0.3421711E+02       0.2146486E+01
      0.3430715E+02       0.2098875E+01
      0.3439720E+02       0.2054636E+01
      0.3448724E+02       0.2014133E+01
      0.3457729E+02       0.1977639E+01
      0.3466733E+02       0.1945344E+01
      0.3475738E+02       0.1917352E+01
      0.3484742E+02       0.1893688E+01
      0.3493747E+02       0.1874302E+01
      0.3502751E+02       0.1859077E+01
      0.3511756E+02       0.1847834E+01
      0.3520760E+02       0.1840342E+01
      0.3529765E+02       0.1836325E+01
      0.3538769E+02       0.1835470E+01
      0.3547774E+02       0.1837437E+01
      0.3556778E+02       0.1841862E+01
      0.3565783E+02       0.1848368E+01
      0.3574787E+02       0.1856573E+01
      0.3583792E+02       0.1866089E+01
      0.3592796E+02       0.1876534E+01
      0.3601801E+02       0.1887533E+01
      0.3610805E+02       0.1898725E+01
      0.3619810E+02       0.1909762E+01
      0.3628814E+02       0.1920315E+01
      0.3637819E+02       0.1930077E+01
      0.3646823E+02       0.1938764E+01
      0.3655828E+02       0.1946114E+01
      0.3664832E+02       0.1951895E+01
      0.3673837E+02       0.1955903E+01
      0.3682841E+02       0.1957960E+01
      0.3691846E+02       0.1957922E+01
      0.3700850E+02       0.1955677E+01
      0.3709855E+02       0.1951144E+01
      0.3718859E+02       0.1944279E+01
      0.3727864E+02       0.1935069E+01
      0.3736868E+02       0.1923539E+01
      0.3745873E+02       0.1909747E+01
      0.3754877E+02       0.1893787E+01
      0.3763882E+02       0.1875785E+01
      0.3772886E+02       0.1855900E+01
      0.3781891E+02       0.1834321E+01
      0.3790895E+02       0.1811263E+01
      0.3799900E+02       0.1786967E+01
      0.3808904E+02       0.1761692E+01
      0.3817909E+02       0.1735713E+01
      0.3826913E+02       0.1709316E+01
      0.3835918E+02       0.1682792E+01
      0.3844922E+02       0.1656430E+01
      0.3853927E+02       0.1630515E+01
      0.3862931E+02       0.1605318E+01
      0.3871936E+02       0.1581095E+01
      0.3880940E+02       0.1558078E+01
      0.3889945E+02       0.1536472E+01
      0.3898949E+02       0.1516451E+01
      0.3907954E+02       0.1498154E+01
      0.3916958E+02       0.1481684E+01
      0.3925963E+02       0.1467105E+01
      0.3934967E+02       0.1454441E+01
      0.3943972E+02       0.1443678E+01
      0.3952976E+02       0.1434765E+01
      0.3961981E+02       0.1427615E+01
      0.3970985E+02       0.1422110E+01
      0.3979990E+02       0.1418102E+01
      0.3988994E+02       0.1415420E+01
      0.3997999E+02       0.1413874E+01
      0.4007004E+02       0.1413260E+01
      0.4016008E+02       0.1413365E+01
      0.4025013E+02       0.1413972E+01
      0.4034017E+02       0.1414868E+01
      0.4043022E+02       0.1415844E+01
      0.4052026E+02       0.1416703E+01
      0.4061031E+02       0.1417265E+01
      0.4070035E+02       0.1417366E+01
      0.4079040E+02       0.1416863E+01
      0.4088044E+02       0.1415636E+01
      0.4097049E+02       0.1413590E+01
      0.4106053E+02       0.1410653E+01
      0.4115058E+02       0.1406777E+01
      0.4124062E+02       0.1401939E+01
      0.4133067E+02       0.1396135E+01
      0.4142071E+02       0.1389384E+01
      0.4151076E+02       0.1381720E+01
      0.4160080E+02       0.1373193E+01
      0.4169085E+02       0.1363865E+01
      0.4178089E+02       0.1353810E+01
      0.4187094E+02       0.1343105E+01
      0.4196098E+02       0.1331835E+01
      0.4205103E+02       0.1320085E+01
      0.4214107E+02       0.1307942E+01
      0.4223112E+02       0.1295489E+01
      0.4232116E+02       0.1282808E+01
      0.4241121E+02       0.1269976E+01
      0.4250125E+02       0.1257066E+01
      0.4259130E+02       0.1244144E+01
      0.4268134E+02       0.1231274E+01
      0.4277139E+02       0.1218511E+01
      0.4286143E+02       0.1205910E+01
      0.4295148E+02       0.1193517E+01
      0.4304152E+02       0.1181378E+01
      0.4313157E+02       0.1169532E+01
      0.4322161E+02       0.1158018E+01
      0.4331166E+02       0.1146872E+01
      0.4340170E+02       0.1136125E+01
      0.4349175E+02       0.1125809E+01
      0.4358179E+02       0.1115950E+01
      0.4367184E+02       0.1106573E+01
      0.4376188E+02       0.1097699E+01
      0.4385193E+02       0.1089344E+01
      0.4394197E+02       0.1081521E+01
      0.4403202E+02       0.1074234E+01
      0.4412206E+02       0.1067483E+01
      0.4421211E+02       0.1061261E+01
      0.4430215E+02       0.1055551E+01
      0.4439220E+02       0.1050329E+01
      0.4448224E+02       0.1045562E+01
      0.4457229E+02       0.1041211E+01
      0.4466233E+02       0.1037225E+01
