STATE= 1
j12= 0
m12= 0
ENERGY#1, U(i)= 800.000 cm^-1
J_TOTAL  CHANNEL=     1  CHANNEL=     2  CHANNEL=     3  CHANNEL=     4  CHANNEL=     5  CHANNEL=     6  CHANNEL=     7  CHANNEL=     8  CHANNEL=     9  CHANNEL=    10  
    0    0.49056945E-02  0.31050767E-01  0.56169706E-03  0.00000000E+00  0.00000000E+00  0.00000000E+00  0.00000000E+00  0.00000000E+00  0.00000000E+00  0.00000000E+00 
    1    0.14919631E-01  0.92966451E-01  0.16679154E-02  0.47872969E-06  0.00000000E+00  0.00000000E+00  0.00000000E+00  0.00000000E+00  0.00000000E+00  0.00000000E+00 
    2    0.25547404E-01  0.15431812E+00  0.27228998E-02  0.23653719E-05  0.00000000E+00  0.00000000E+00  0.00000000E+00  0.00000000E+00  0.00000000E+00  0.00000000E+00 
    3    0.37218672E-01  0.21470843E+00  0.36935041E-02  0.65053565E-05  0.00000000E+00  0.00000000E+00  0.00000000E+00  0.00000000E+00  0.00000000E+00  0.00000000E+00 
    4    0.50393022E-01  0.27370860E+00  0.45482026E-02  0.13608118E-04  0.00000000E+00  0.00000000E+00  0.00000000E+00  0.00000000E+00  0.00000000E+00  0.00000000E+00 
    5    0.65570452E-01  0.33084715E+00  0.52579468E-02  0.24200266E-04  0.00000000E+00  0.00000000E+00  0.00000000E+00  0.00000000E+00  0.00000000E+00  0.00000000E+00 
    6    0.83300289E-01  0.38559997E+00  0.57972211E-02  0.38586339E-04  0.00000000E+00  0.00000000E+00  0.00000000E+00  0.00000000E+00  0.00000000E+00  0.00000000E+00 
    7    0.10418799E+00  0.43738223E+00  0.61453396E-02  0.56819330E-04  0.00000000E+00  0.00000000E+00  0.00000000E+00  0.00000000E+00  0.00000000E+00  0.00000000E+00 
    8    0.12889911E+00  0.48554289E+00  0.62880165E-02  0.78683064E-04  0.00000000E+00  0.00000000E+00  0.00000000E+00  0.00000000E+00  0.00000000E+00  0.00000000E+00 
    9    0.15815959E+00  0.52936251E+00  0.62192217E-02  0.10368847E-03  0.00000000E+00  0.00000000E+00  0.00000000E+00  0.00000000E+00  0.00000000E+00  0.00000000E+00 
   10    0.19275113E+00  0.56805580E+00  0.59433197E-02  0.13108569E-03  0.00000000E+00  0.00000000E+00  0.00000000E+00  0.00000000E+00  0.00000000E+00  0.00000000E+00 
   11    0.23349965E+00  0.60078065E+00  0.54774545E-02  0.15989402E-03  0.00000000E+00  0.00000000E+00  0.00000000E+00  0.00000000E+00  0.00000000E+00  0.00000000E+00 
   12    0.28125345E+00  0.62665744E+00  0.48541156E-02  0.18895282E-03  0.00000000E+00  0.00000000E+00  0.00000000E+00  0.00000000E+00  0.00000000E+00  0.00000000E+00 
   13    0.33684255E+00  0.64480694E+00  0.41237953E-02  0.21700116E-03  0.00000000E+00  0.00000000E+00  0.00000000E+00  0.00000000E+00  0.00000000E+00  0.00000000E+00 
   14    0.40097795E+00  0.65444782E+00  0.33579992E-02  0.24283234E-03  0.00000000E+00  0.00000000E+00  0.00000000E+00  0.00000000E+00  0.00000000E+00  0.00000000E+00 
   15    0.47422056E+00  0.65492857E+00  0.26484174E-02  0.26537186E-03  0.00000000E+00  0.00000000E+00  0.00000000E+00  0.00000000E+00  0.00000000E+00  0.00000000E+00 
   16    0.55708531E+00  0.64562768E+00  0.21026795E-02  0.28355965E-03  0.00000000E+00  0.00000000E+00  0.00000000E+00  0.00000000E+00  0.00000000E+00  0.00000000E+00 
   17    0.64991525E+00  0.62608003E+00  0.18438017E-02  0.29647220E-03  0.00000000E+00  0.00000000E+00  0.00000000E+00  0.00000000E+00  0.00000000E+00  0.00000000E+00 
   18    0.75281242E+00  0.59605105E+00  0.20050393E-02  0.30336326E-03  0.00000000E+00  0.00000000E+00  0.00000000E+00  0.00000000E+00  0.00000000E+00  0.00000000E+00 
   19    0.86555075E+00  0.55563256E+00  0.27211744E-02  0.30369919E-03  0.00000000E+00  0.00000000E+00  0.00000000E+00  0.00000000E+00  0.00000000E+00  0.00000000E+00 
   20    0.98743555E+00  0.50539669E+00  0.41150248E-02  0.29723673E-03  0.00000000E+00  0.00000000E+00  0.00000000E+00  0.00000000E+00  0.00000000E+00  0.00000000E+00 
   21    0.11169450E+01  0.44677581E+00  0.62756643E-02  0.28438035E-03  0.00000000E+00  0.00000000E+00  0.00000000E+00  0.00000000E+00  0.00000000E+00  0.00000000E+00 
   22    0.12517059E+01  0.38211752E+00  0.92275671E-02  0.26613416E-03  0.00000000E+00  0.00000000E+00  0.00000000E+00  0.00000000E+00  0.00000000E+00  0.00000000E+00 
   23    0.13895273E+01  0.31366992E+00  0.12913518E-01  0.24267169E-03  0.00000000E+00  0.00000000E+00  0.00000000E+00  0.00000000E+00  0.00000000E+00  0.00000000E+00 
   24    0.15278158E+01  0.24418837E+00  0.17171491E-01  0.21415013E-03  0.00000000E+00  0.00000000E+00  0.00000000E+00  0.00000000E+00  0.00000000E+00  0.00000000E+00 
   25    0.16632429E+01  0.17728976E+00  0.21712039E-01  0.18143839E-03  0.00000000E+00  0.00000000E+00  0.00000000E+00  0.00000000E+00  0.00000000E+00  0.00000000E+00 
   26    0.17918928E+01  0.11732548E+00  0.26097571E-01  0.14656309E-03  0.00000000E+00  0.00000000E+00  0.00000000E+00  0.00000000E+00  0.00000000E+00  0.00000000E+00 
   27    0.19109835E+01  0.67650878E-01  0.29753489E-01  0.11083596E-03  0.00000000E+00  0.00000000E+00  0.00000000E+00  0.00000000E+00  0.00000000E+00  0.00000000E+00 
   28    0.20181567E+01  0.31236182E-01  0.32065258E-01  0.76886392E-04  0.00000000E+00  0.00000000E+00  0.00000000E+00  0.00000000E+00  0.00000000E+00  0.00000000E+00 
   29    0.21124667E+01  0.95707567E-02  0.32485907E-01  0.48019151E-04  0.00000000E+00  0.00000000E+00  0.00000000E+00  0.00000000E+00  0.00000000E+00  0.00000000E+00 
   30    0.21953731E+01  0.15103646E-02  0.30697833E-01  0.26372430E-04  0.00000000E+00  0.00000000E+00  0.00000000E+00  0.00000000E+00  0.00000000E+00  0.00000000E+00 
   31    0.22701976E+01  0.35499546E-02  0.26883563E-01  0.12842095E-04  0.00000000E+00  0.00000000E+00  0.00000000E+00  0.00000000E+00  0.00000000E+00  0.00000000E+00 
   32    0.23413891E+01  0.10583086E-01  0.21702159E-01  0.59395629E-05  0.00000000E+00  0.00000000E+00  0.00000000E+00  0.00000000E+00  0.00000000E+00  0.00000000E+00 
   33    0.24128038E+01  0.17776170E-01  0.16133551E-01  0.30640281E-05  0.00000000E+00  0.00000000E+00  0.00000000E+00  0.00000000E+00  0.00000000E+00  0.00000000E+00 
   34    0.24865243E+01  0.22127954E-01  0.11098775E-01  0.19267827E-05  0.00000000E+00  0.00000000E+00  0.00000000E+00  0.00000000E+00  0.00000000E+00  0.00000000E+00 
   35    0.25627418E+01  0.22949036E-01  0.70971059E-02  0.13050736E-05  0.00000000E+00  0.00000000E+00  0.00000000E+00  0.00000000E+00  0.00000000E+00  0.00000000E+00 
   36    0.26402758E+01  0.21251637E-01  0.42972844E-02  0.85832325E-06  0.00000000E+00  0.00000000E+00  0.00000000E+00  0.00000000E+00  0.00000000E+00  0.00000000E+00 
   37    0.27181296E+01  0.18240676E-01  0.24910451E-02  0.53528229E-06  0.00000000E+00  0.00000000E+00  0.00000000E+00  0.00000000E+00  0.00000000E+00  0.00000000E+00 
   38    0.27956148E+01  0.14894093E-01  0.13890245E-02  0.31907127E-06  0.00000000E+00  0.00000000E+00  0.00000000E+00  0.00000000E+00  0.00000000E+00  0.00000000E+00 
   39    0.28723863E+01  0.11798484E-01  0.74955706E-03  0.18561151E-06  0.00000000E+00  0.00000000E+00  0.00000000E+00  0.00000000E+00  0.00000000E+00  0.00000000E+00 
   40    0.29484150E+01  0.91640307E-02  0.39174635E-03  0.10646237E-06  0.00000000E+00  0.00000000E+00  0.00000000E+00  0.00000000E+00  0.00000000E+00  0.00000000E+00 
   41    0.30237750E+01  0.70330606E-02  0.19902201E-03  0.60674827E-07  0.00000000E+00  0.00000000E+00  0.00000000E+00  0.00000000E+00  0.00000000E+00  0.00000000E+00 
   42    0.30985966E+01  0.53479757E-02  0.98846518E-04  0.34440459E-07  0.00000000E+00  0.00000000E+00  0.00000000E+00  0.00000000E+00  0.00000000E+00  0.00000000E+00 
   43    0.31729879E+01  0.40438859E-02  0.48012314E-04  0.19546148E-07  0.00000000E+00  0.00000000E+00  0.00000000E+00  0.00000000E+00  0.00000000E+00  0.00000000E+00 
   44    0.32470382E+01  0.30554043E-02  0.22463609E-04  0.11162071E-07  0.00000000E+00  0.00000000E+00  0.00000000E+00  0.00000000E+00  0.00000000E+00  0.00000000E+00 
   45    0.33208274E+01  0.23151075E-02  0.98998429E-05  0.64415961E-08  0.00000000E+00  0.00000000E+00  0.00000000E+00  0.00000000E+00  0.00000000E+00  0.00000000E+00 
   46    0.33944230E+01  0.17616777E-02  0.41109459E-05  0.37591794E-08  0.00000000E+00  0.00000000E+00  0.00000000E+00  0.00000000E+00  0.00000000E+00  0.00000000E+00 
   47    0.34678771E+01  0.13462510E-02  0.17079193E-05  0.22164543E-08  0.00000000E+00  0.00000000E+00  0.00000000E+00  0.00000000E+00  0.00000000E+00  0.00000000E+00 
   48    0.35412282E+01  0.10323713E-02  0.86350741E-06  0.13192043E-08  0.00000000E+00  0.00000000E+00  0.00000000E+00  0.00000000E+00  0.00000000E+00  0.00000000E+00 
   49    0.36145036E+01  0.79344211E-03  0.68528731E-06  0.79205472E-09  0.00000000E+00  0.00000000E+00  0.00000000E+00  0.00000000E+00  0.00000000E+00  0.00000000E+00 
   50    0.36877224E+01  0.61088371E-03  0.77324559E-06  0.47961279E-09  0.00000000E+00  0.00000000E+00  0.00000000E+00  0.00000000E+00  0.00000000E+00  0.00000000E+00 
   51    0.37608976E+01  0.47181118E-03  0.93556202E-06  0.29318201E-09  0.00000000E+00  0.00000000E+00  0.00000000E+00  0.00000000E+00  0.00000000E+00  0.00000000E+00 
   52    0.38340395E+01  0.36607552E-03  0.10783556E-05  0.18108062E-09  0.00000000E+00  0.00000000E+00  0.00000000E+00  0.00000000E+00  0.00000000E+00  0.00000000E+00 
   53    0.39071561E+01  0.28566069E-03  0.11681573E-05  0.11305103E-09  0.00000000E+00  0.00000000E+00  0.00000000E+00  0.00000000E+00  0.00000000E+00  0.00000000E+00 
   54    0.39802537E+01  0.22439746E-03  0.12015356E-05  0.71342229E-10  0.00000000E+00  0.00000000E+00  0.00000000E+00  0.00000000E+00  0.00000000E+00  0.00000000E+00 
   55    0.40533368E+01  0.17759589E-03  0.11854379E-05  0.45493380E-10  0.00000000E+00  0.00000000E+00  0.00000000E+00  0.00000000E+00  0.00000000E+00  0.00000000E+00 
   56    0.41264092E+01  0.14158087E-03  0.11331416E-05  0.29294050E-10  0.00000000E+00  0.00000000E+00  0.00000000E+00  0.00000000E+00  0.00000000E+00  0.00000000E+00 
   57    0.41994739E+01  0.11328808E-03  0.10701788E-05  0.19023374E-10  0.00000000E+00  0.00000000E+00  0.00000000E+00  0.00000000E+00  0.00000000E+00  0.00000000E+00 
   58    0.42725327E+01  0.90840726E-04  0.10043256E-05  0.12447886E-10  0.00000000E+00  0.00000000E+00  0.00000000E+00  0.00000000E+00  0.00000000E+00  0.00000000E+00 
   59    0.43455868E+01  0.73108059E-04  0.93014676E-06  0.82033138E-11  0.00000000E+00  0.00000000E+00  0.00000000E+00  0.00000000E+00  0.00000000E+00  0.00000000E+00 
   60    0.44186373E+01  0.59075924E-04  0.85071555E-06  0.54426789E-11  0.00000000E+00  0.00000000E+00  0.00000000E+00  0.00000000E+00  0.00000000E+00  0.00000000E+00 
   61    0.44916848E+01  0.47950904E-04  0.76959914E-06  0.36348838E-11  0.00000000E+00  0.00000000E+00  0.00000000E+00  0.00000000E+00  0.00000000E+00  0.00000000E+00 
   62    0.45647300E+01  0.39096325E-04  0.69023609E-06  0.24425826E-11  0.00000000E+00  0.00000000E+00  0.00000000E+00  0.00000000E+00  0.00000000E+00  0.00000000E+00 
   63    0.46377735E+01  0.32000656E-04  0.61571401E-06  0.16504257E-11  0.00000000E+00  0.00000000E+00  0.00000000E+00  0.00000000E+00  0.00000000E+00  0.00000000E+00 
   64    0.47108156E+01  0.26276077E-04  0.54775280E-06  0.11206618E-11  0.00000000E+00  0.00000000E+00  0.00000000E+00  0.00000000E+00  0.00000000E+00  0.00000000E+00 
   65    0.47838567E+01  0.21644719E-04  0.48621912E-06  0.76456287E-12  0.00000000E+00  0.00000000E+00  0.00000000E+00  0.00000000E+00  0.00000000E+00  0.00000000E+00 
   66    0.48568968E+01  0.17889019E-04  0.43063764E-06  0.52402774E-12  0.00000000E+00  0.00000000E+00  0.00000000E+00  0.00000000E+00  0.00000000E+00  0.00000000E+00 
   67    0.49299362E+01  0.14830630E-04  0.38071491E-06  0.36071395E-12  0.00000000E+00  0.00000000E+00  0.00000000E+00  0.00000000E+00  0.00000000E+00  0.00000000E+00 
   68    0.50029751E+01  0.12326367E-04  0.33621048E-06  0.24927095E-12  0.00000000E+00  0.00000000E+00  0.00000000E+00  0.00000000E+00  0.00000000E+00  0.00000000E+00 
   69    0.50760135E+01  0.10266766E-04  0.29673872E-06  0.17289538E-12  0.00000000E+00  0.00000000E+00  0.00000000E+00  0.00000000E+00  0.00000000E+00  0.00000000E+00 
   70    0.51490515E+01  0.85722765E-05  0.26167916E-06  0.12038312E-12  0.00000000E+00  0.00000000E+00  0.00000000E+00  0.00000000E+00  0.00000000E+00  0.00000000E+00 
   71    0.52220893E+01  0.71758627E-05  0.23068083E-06  0.84163671E-13  0.00000000E+00  0.00000000E+00  0.00000000E+00  0.00000000E+00  0.00000000E+00  0.00000000E+00 
   72    0.52951268E+01  0.60179174E-05  0.20360708E-06  0.59081673E-13  0.00000000E+00  0.00000000E+00  0.00000000E+00  0.00000000E+00  0.00000000E+00  0.00000000E+00 
   73    0.53681641E+01  0.50554734E-05  0.17989644E-06  0.41634762E-13  0.00000000E+00  0.00000000E+00  0.00000000E+00  0.00000000E+00  0.00000000E+00  0.00000000E+00 
   74    0.54412012E+01  0.42547123E-05  0.15903865E-06  0.29449589E-13  0.00000000E+00  0.00000000E+00  0.00000000E+00  0.00000000E+00  0.00000000E+00  0.00000000E+00 
   75    0.55142382E+01  0.35874063E-05  0.14066365E-06  0.20906967E-13  0.00000000E+00  0.00000000E+00  0.00000000E+00  0.00000000E+00  0.00000000E+00  0.00000000E+00 
   76    0.55872751E+01  0.30301063E-05  0.12447049E-06  0.14895236E-13  0.00000000E+00  0.00000000E+00  0.00000000E+00  0.00000000E+00  0.00000000E+00  0.00000000E+00 
   77    0.56603119E+01  0.25637681E-05  0.11019220E-06  0.10649034E-13  0.00000000E+00  0.00000000E+00  0.00000000E+00  0.00000000E+00  0.00000000E+00  0.00000000E+00 
   78    0.57333486E+01  0.21728040E-05  0.97595697E-07  0.76391091E-14  0.00000000E+00  0.00000000E+00  0.00000000E+00  0.00000000E+00  0.00000000E+00  0.00000000E+00 
   79    0.58063853E+01  0.18444161E-05  0.86477646E-07  0.54980502E-14  0.00000000E+00  0.00000000E+00  0.00000000E+00  0.00000000E+00  0.00000000E+00  0.00000000E+00 
   80    0.58794219E+01  0.15680906E-05  0.76659841E-07  0.39698456E-14  0.00000000E+00  0.00000000E+00  0.00000000E+00  0.00000000E+00  0.00000000E+00  0.00000000E+00 
   81    0.59524585E+01  0.13351652E-05  0.67986267E-07  0.28754382E-14  0.00000000E+00  0.00000000E+00  0.00000000E+00  0.00000000E+00  0.00000000E+00  0.00000000E+00 
   82    0.60254950E+01  0.11384879E-05  0.60320153E-07  0.20891392E-14  0.00000000E+00  0.00000000E+00  0.00000000E+00  0.00000000E+00  0.00000000E+00  0.00000000E+00 
   83    0.60985315E+01  0.97214150E-06  0.53541503E-07  0.15224099E-14  0.00000000E+00  0.00000000E+00  0.00000000E+00  0.00000000E+00  0.00000000E+00  0.00000000E+00 
   84    0.61715679E+01  0.83122090E-06  0.47544991E-07  0.11126670E-14  0.00000000E+00  0.00000000E+00  0.00000000E+00  0.00000000E+00  0.00000000E+00  0.00000000E+00 
   85    0.62446044E+01  0.71165269E-06  0.42238111E-07  0.81552499E-15  0.00000000E+00  0.00000000E+00  0.00000000E+00  0.00000000E+00  0.00000000E+00  0.00000000E+00 
   86    0.63176408E+01  0.61004684E-06  0.37539564E-07  0.59940039E-15  0.00000000E+00  0.00000000E+00  0.00000000E+00  0.00000000E+00  0.00000000E+00  0.00000000E+00 
   87    0.63906772E+01  0.52357675E-06  0.33377857E-07  0.44174692E-15  0.00000000E+00  0.00000000E+00  0.00000000E+00  0.00000000E+00  0.00000000E+00  0.00000000E+00 
   88    0.64637136E+01  0.44988153E-06  0.29690096E-07  0.32641918E-15  0.00000000E+00  0.00000000E+00  0.00000000E+00  0.00000000E+00  0.00000000E+00  0.00000000E+00 
   89    0.65367500E+01  0.38698612E-06  0.26420925E-07  0.24181992E-15  0.00000000E+00  0.00000000E+00  0.00000000E+00  0.00000000E+00  0.00000000E+00  0.00000000E+00 
   90    0.66097864E+01  0.33323499E-06  0.23521602E-07  0.17959355E-15  0.00000000E+00  0.00000000E+00  0.00000000E+00  0.00000000E+00  0.00000000E+00  0.00000000E+00 
   91    0.66828227E+01  0.28723804E-06  0.20949181E-07  0.13370224E-15  0.00000000E+00  0.00000000E+00  0.00000000E+00  0.00000000E+00  0.00000000E+00  0.00000000E+00 
   92    0.67558591E+01  0.24782625E-06  0.18665815E-07  0.99770445E-16  0.00000000E+00  0.00000000E+00  0.00000000E+00  0.00000000E+00  0.00000000E+00  0.00000000E+00 
   93    0.68288954E+01  0.21401506E-06  0.16638136E-07  0.74618263E-16  0.00000000E+00  0.00000000E+00  0.00000000E+00  0.00000000E+00  0.00000000E+00  0.00000000E+00 
   94    0.69019318E+01  0.18497382E-06  0.14836713E-07  0.55928291E-16  0.00000000E+00  0.00000000E+00  0.00000000E+00  0.00000000E+00  0.00000000E+00  0.00000000E+00 
   95    0.69749681E+01  0.16000062E-06  0.13235576E-07  0.42007070E-16  0.00000000E+00  0.00000000E+00  0.00000000E+00  0.00000000E+00  0.00000000E+00  0.00000000E+00 
   96    0.70480045E+01  0.13850147E-06  0.11811802E-07  0.31613799E-16  0.00000000E+00  0.00000000E+00  0.00000000E+00  0.00000000E+00  0.00000000E+00  0.00000000E+00 
   97    0.71210408E+01  0.11997306E-06  0.10545150E-07  0.23836977E-16  0.00000000E+00  0.00000000E+00  0.00000000E+00  0.00000000E+00  0.00000000E+00  0.00000000E+00 
   98    0.71940771E+01  0.10398824E-06  0.94177447E-08  0.18005276E-16  0.00000000E+00  0.00000000E+00  0.00000000E+00  0.00000000E+00  0.00000000E+00  0.00000000E+00 
   99    0.72671135E+01  0.90183970E-07  0.84137878E-08  0.13623017E-16  0.00000000E+00  0.00000000E+00  0.00000000E+00  0.00000000E+00  0.00000000E+00  0.00000000E+00 
  100    0.73401498E+01  0.78251260E-07  0.75193168E-08  0.10323308E-16  0.00000000E+00  0.00000000E+00  0.00000000E+00  0.00000000E+00  0.00000000E+00  0.00000000E+00 
  101    0.74131861E+01  0.67926850E-07  0.67219874E-08  0.78339366E-17  0.00000000E+00  0.00000000E+00  0.00000000E+00  0.00000000E+00  0.00000000E+00  0.00000000E+00 
  102    0.74862225E+01  0.58986098E-07  0.60108818E-08  0.59524519E-17  0.00000000E+00  0.00000000E+00  0.00000000E+00  0.00000000E+00  0.00000000E+00  0.00000000E+00 
  103    0.75592588E+01  0.51237062E-07  0.53763411E-08  0.45279411E-17  0.00000000E+00  0.00000000E+00  0.00000000E+00  0.00000000E+00  0.00000000E+00  0.00000000E+00 
  104    0.76322951E+01  0.44515542E-07  0.48098170E-08  0.34476539E-17  0.00000000E+00  0.00000000E+00  0.00000000E+00  0.00000000E+00  0.00000000E+00  0.00000000E+00 
  105    0.77053314E+01  0.38680915E-07  0.43037435E-08  0.26271682E-17  0.00000000E+00  0.00000000E+00  0.00000000E+00  0.00000000E+00  0.00000000E+00  0.00000000E+00 
  106    0.77783678E+01  0.33612601E-07  0.38514209E-08  0.20031355E-17  0.00000000E+00  0.00000000E+00  0.00000000E+00  0.00000000E+00  0.00000000E+00  0.00000000E+00 
  107    0.78514041E+01  0.29207071E-07  0.34469153E-08  0.15279207E-17  0.00000000E+00  0.00000000E+00  0.00000000E+00  0.00000000E+00  0.00000000E+00  0.00000000E+00 
  108    0.79244404E+01  0.25375341E-07  0.30849692E-08  0.11656317E-17  0.00000000E+00  0.00000000E+00  0.00000000E+00  0.00000000E+00  0.00000000E+00  0.00000000E+00 
  109    0.79974767E+01  0.22040851E-07  0.27609240E-08  0.88917115E-18  0.00000000E+00  0.00000000E+00  0.00000000E+00  0.00000000E+00  0.00000000E+00  0.00000000E+00 
  110    0.80705130E+01  0.19137657E-07  0.24706500E-08  0.67804253E-18  0.00000000E+00  0.00000000E+00  0.00000000E+00  0.00000000E+00  0.00000000E+00  0.00000000E+00 
  111    0.81435494E+01  0.16608891E-07  0.22104854E-08  0.51671328E-18  0.00000000E+00  0.00000000E+00  0.00000000E+00  0.00000000E+00  0.00000000E+00  0.00000000E+00 
  112    0.82165857E+01  0.14405465E-07  0.19771824E-08  0.39339184E-18  0.00000000E+00  0.00000000E+00  0.00000000E+00  0.00000000E+00  0.00000000E+00  0.00000000E+00 
  113    0.82896220E+01  0.12484964E-07  0.17678592E-08  0.29911158E-18  0.00000000E+00  0.00000000E+00  0.00000000E+00  0.00000000E+00  0.00000000E+00  0.00000000E+00 
  114    0.83626583E+01  0.10810708E-07  0.15799584E-08  0.22704304E-18  0.00000000E+00  0.00000000E+00  0.00000000E+00  0.00000000E+00  0.00000000E+00  0.00000000E+00 
  115    0.84356946E+01  0.93509386E-08  0.14112091E-08  0.17197656E-18  0.00000000E+00  0.00000000E+00  0.00000000E+00  0.00000000E+00  0.00000000E+00  0.00000000E+00 
  116    0.85087310E+01  0.80781320E-08  0.12595940E-08  0.12993243E-18  0.00000000E+00  0.00000000E+00  0.00000000E+00  0.00000000E+00  0.00000000E+00  0.00000000E+00 
