 energy           1
 state =            1
 j12=           0
 m12=           0
          ANGLE,deg DIFF. CROSS.,angs^2
      0.0000000E+00       0.3416273E+05
      0.1801802E+00       0.3390210E+05
      0.3603604E+00       0.3313119E+05
      0.5405405E+00       0.3188224E+05
      0.7207207E+00       0.3020672E+05
      0.9009009E+00       0.2817213E+05
      0.1081081E+01       0.2585786E+05
      0.1261261E+01       0.2335045E+05
      0.1441441E+01       0.2073869E+05
      0.1621622E+01       0.1810872E+05
      0.1801802E+01       0.1553972E+05
      0.1981982E+01       0.1310028E+05
      0.2162162E+01       0.1084575E+05
      0.2342342E+01       0.8816694E+04
      0.2522523E+01       0.7038404E+04
      0.2702703E+01       0.5521466E+04
      0.2882883E+01       0.4263208E+04
      0.3063063E+01       0.3249824E+04
      0.3243243E+01       0.2458949E+04
      0.3423423E+01       0.1862418E+04
      0.3603604E+01       0.1428989E+04
      0.3783784E+01       0.1126822E+04
      0.3963964E+01       0.9255562E+03
      0.4144144E+01       0.7978887E+03
      0.4324324E+01       0.7206144E+03
      0.4504505E+01       0.6751348E+03
      0.4684685E+01       0.6474967E+03
      0.4864865E+01       0.6280488E+03
      0.5045045E+01       0.6108250E+03
      0.5225225E+01       0.5927702E+03
      0.5405405E+01       0.5729157E+03
      0.5585586E+01       0.5515951E+03
      0.5765766E+01       0.5297701E+03
      0.5945946E+01       0.5085087E+03
      0.6126126E+01       0.4886328E+03
      0.6306306E+01       0.4705319E+03
      0.6486486E+01       0.4541181E+03
      0.6666667E+01       0.4388912E+03
      0.6846847E+01       0.4240739E+03
      0.7027027E+01       0.4087782E+03
      0.7207207E+01       0.3921707E+03
      0.7387387E+01       0.3736101E+03
      0.7567568E+01       0.3527411E+03
      0.7747748E+01       0.3295374E+03
      0.7927928E+01       0.3042968E+03
      0.8108108E+01       0.2775935E+03
      0.8288288E+01       0.2502027E+03
      0.8468468E+01       0.2230090E+03
      0.8648649E+01       0.1969123E+03
      0.8828829E+01       0.1727431E+03
      0.9009009E+01       0.1511938E+03
      0.9189189E+01       0.1327726E+03
      0.9369369E+01       0.1177795E+03
      0.9549550E+01       0.1063039E+03
      0.9729730E+01       0.9823955E+02
      0.9909910E+01       0.9331321E+02
      0.1009009E+02       0.9112036E+02
      0.1027027E+02       0.9116469E+02
      0.1045045E+02       0.9289677E+02
      0.1063063E+02       0.9574934E+02
      0.1081081E+02       0.9916753E+02
      0.1099099E+02       0.1026335E+03
      0.1117117E+02       0.1056856E+03
      0.1135135E+02       0.1079323E+03
      0.1153153E+02       0.1090623E+03
      0.1171171E+02       0.1088510E+03
      0.1189189E+02       0.1071638E+03
      0.1207207E+02       0.1039570E+03
      0.1225225E+02       0.9927544E+02
      0.1243243E+02       0.9324741E+02
      0.1261261E+02       0.8607606E+02
      0.1279279E+02       0.7802770E+02
      0.1297297E+02       0.6941661E+02
      0.1315315E+02       0.6058721E+02
      0.1333333E+02       0.5189404E+02
      0.1351351E+02       0.4368094E+02
      0.1369369E+02       0.3626054E+02
      0.1387387E+02       0.2989557E+02
      0.1405405E+02       0.2478347E+02
      0.1423423E+02       0.2104527E+02
      0.1441441E+02       0.1871985E+02
      0.1459459E+02       0.1776378E+02
      0.1477477E+02       0.1805692E+02
      0.1495495E+02       0.1941308E+02
      0.1513514E+02       0.2159479E+02
      0.1531532E+02       0.2433113E+02
      0.1549550E+02       0.2733685E+02
      0.1567568E+02       0.3033152E+02
      0.1585586E+02       0.3305712E+02
      0.1603604E+02       0.3529300E+02
      0.1621622E+02       0.3686714E+02
      0.1639640E+02       0.3766339E+02
      0.1657658E+02       0.3762432E+02
      0.1675676E+02       0.3674997E+02
      0.1693694E+02       0.3509305E+02
      0.1711712E+02       0.3275119E+02
      0.1729730E+02       0.2985710E+02
      0.1747748E+02       0.2656763E+02
      0.1765766E+02       0.2305238E+02
      0.1783784E+02       0.1948286E+02
      0.1801802E+02       0.1602252E+02
      0.1819820E+02       0.1281838E+02
      0.1837838E+02       0.9994356E+01
      0.1855856E+02       0.7646432E+01
      0.1873874E+02       0.5839823E+01
      0.1891892E+02       0.4607896E+01
      0.1909910E+02       0.3952783E+01
      0.1927928E+02       0.3847453E+01
      0.1945946E+02       0.4239032E+01
      0.1963964E+02       0.5053107E+01
      0.1981982E+02       0.6198793E+01
      0.2000000E+02       0.7574265E+01
      0.2018018E+02       0.9072519E+01
      0.2036036E+02       0.1058709E+02
      0.2054054E+02       0.1201747E+02
      0.2072072E+02       0.1327394E+02
      0.2090090E+02       0.1428170E+02
      0.2108108E+02       0.1498395E+02
      0.2126126E+02       0.1534395E+02
      0.2144144E+02       0.1534588E+02
      0.2162162E+02       0.1499453E+02
      0.2180180E+02       0.1431391E+02
      0.2198198E+02       0.1334484E+02
      0.2216216E+02       0.1214180E+02
      0.2234234E+02       0.1076920E+02
      0.2252252E+02       0.9297357E+01
      0.2270270E+02       0.7798433E+01
      0.2288288E+02       0.6342556E+01
      0.2306306E+02       0.4994360E+01
      0.2324324E+02       0.3810088E+01
      0.2342342E+02       0.2835362E+01
      0.2360360E+02       0.2103684E+01
      0.2378378E+02       0.1635648E+01
      0.2396396E+02       0.1438839E+01
      0.2414414E+02       0.1508311E+01
      0.2432432E+02       0.1827573E+01
      0.2450450E+02       0.2369948E+01
      0.2468468E+02       0.3100217E+01
      0.2486486E+02       0.3976447E+01
      0.2504505E+02       0.4951924E+01
      0.2522523E+02       0.5977131E+01
      0.2540541E+02       0.7001724E+01
      0.2558559E+02       0.7976471E+01
      0.2576577E+02       0.8855112E+01
      0.2594595E+02       0.9596123E+01
      0.2612613E+02       0.1016433E+02
      0.2630631E+02       0.1053235E+02
      0.2648649E+02       0.1068172E+02
      0.2666667E+02       0.1060385E+02
      0.2684685E+02       0.1030047E+02
      0.2702703E+02       0.9783737E+01
      0.2720721E+02       0.9075918E+01
      0.2738739E+02       0.8208515E+01
      0.2756757E+02       0.7221003E+01
      0.2774775E+02       0.6159113E+01
      0.2792793E+02       0.5072761E+01
      0.2810811E+02       0.4013725E+01
      0.2828829E+02       0.3033155E+01
      0.2846847E+02       0.2179077E+01
      0.2864865E+02       0.1493994E+01
      0.2882883E+02       0.1012734E+01
      0.2900901E+02       0.7606521E+00
      0.2918919E+02       0.7522777E+00
      0.2936937E+02       0.9904949E+00
      0.2954955E+02       0.1466284E+01
      0.2972973E+02       0.2159044E+01
      0.2990991E+02       0.3037486E+01
      0.3009009E+02       0.4061037E+01
      0.3027027E+02       0.5181711E+01
      0.3045045E+02       0.6346340E+01
      0.3063063E+02       0.7499070E+01
      0.3081081E+02       0.8584014E+01
      0.3099099E+02       0.9547933E+01
      0.3117117E+02       0.1034283E+02
      0.3135135E+02       0.1092831E+02
      0.3153153E+02       0.1127368E+02
      0.3171171E+02       0.1135955E+02
      0.3189189E+02       0.1117896E+02
      0.3207207E+02       0.1073790E+02
      0.3225225E+02       0.1005530E+02
      0.3243243E+02       0.9162223E+01
      0.3261261E+02       0.8100594E+01
      0.3279279E+02       0.6921259E+01
      0.3297297E+02       0.5681585E+01
      0.3315315E+02       0.4442663E+01
      0.3333333E+02       0.3266266E+01
      0.3351351E+02       0.2211702E+01
      0.3369369E+02       0.1332743E+01
      0.3387387E+02       0.6747794E+00
      0.3405405E+02       0.2723802E+00
      0.3423423E+02       0.1473832E+00
      0.3441441E+02       0.3076429E+00
      0.3459459E+02       0.7465080E+00
      0.3477477E+02       0.1443071E+01
      0.3495495E+02       0.2363181E+01
      0.3513514E+02       0.3461171E+01
      0.3531532E+02       0.4682206E+01
      0.3549550E+02       0.5965124E+01
      0.3567568E+02       0.7245611E+01
      0.3585586E+02       0.8459536E+01
      0.3603604E+02       0.9546262E+01
      0.3621622E+02       0.1045175E+02
      0.3639640E+02       0.1113130E+02
      0.3657658E+02       0.1155176E+02
      0.3675676E+02       0.1169314E+02
      0.3693694E+02       0.1154946E+02
      0.3711712E+02       0.1112897E+02
      0.3729730E+02       0.1045353E+02
      0.3747748E+02       0.9557345E+01
      0.3765766E+02       0.8485091E+01
      0.3783784E+02       0.7289546E+01
      0.3801802E+02       0.6028832E+01
      0.3819820E+02       0.4763442E+01
      0.3837838E+02       0.3553203E+01
      0.3855856E+02       0.2454322E+01
      0.3873874E+02       0.1516668E+01
      0.3891892E+02       0.7814184E+00
      0.3909910E+02       0.2791813E+00
      0.3927928E+02       0.2868054E-01
      0.3945946E+02       0.3605304E-01
      0.3963964E+02       0.2947863E+00
      0.3981982E+02       0.7862838E+00
      0.4000000E+02       0.1481018E+01
      0.4018018E+02       0.2340201E+01
      0.4036036E+02       0.3317880E+01
      0.4054054E+02       0.4363339E+01
      0.4072072E+02       0.5423683E+01
      0.4090090E+02       0.6446468E+01
      0.4108108E+02       0.7382243E+01
      0.4126126E+02       0.8186875E+01
      0.4144144E+02       0.8823551E+01
      0.4162162E+02       0.9264359E+01
      0.4180180E+02       0.9491379E+01
      0.4198198E+02       0.9497252E+01
      0.4216216E+02       0.9285205E+01
      0.4234234E+02       0.8868556E+01
      0.4252252E+02       0.8269746E+01
      0.4270270E+02       0.7518950E+01
      0.4288288E+02       0.6652377E+01
      0.4306306E+02       0.5710337E+01
      0.4324324E+02       0.4735189E+01
      0.4342342E+02       0.3769284E+01
      0.4360360E+02       0.2852994E+01
      0.4378378E+02       0.2022926E+01
      0.4396396E+02       0.1310397E+01
      0.4414414E+02       0.7402305E+00
      0.4432432E+02       0.3299186E+00
      0.4450450E+02       0.8915878E-01
      0.4468468E+02       0.1977927E-01
      0.4486486E+02       0.1160253E+00
      0.4504505E+02       0.3651744E+00
      0.4522523E+02       0.7484329E+00
      0.4540541E+02       0.1242054E+01
      0.4558559E+02       0.1818617E+01
      0.4576577E+02       0.2448390E+01
      0.4594595E+02       0.3100729E+01
      0.4612613E+02       0.3745423E+01
      0.4630631E+02       0.4353959E+01
      0.4648649E+02       0.4900626E+01
      0.4666667E+02       0.5363451E+01
      0.4684685E+02       0.5724912E+01
      0.4702703E+02       0.5972431E+01
      0.4720721E+02       0.6098630E+01
      0.4738739E+02       0.6101358E+01
      0.4756757E+02       0.5983509E+01
      0.4774775E+02       0.5752646E+01
      0.4792793E+02       0.5420463E+01
      0.4810811E+02       0.5002116E+01
      0.4828829E+02       0.4515472E+01
      0.4846847E+02       0.3980288E+01
      0.4864865E+02       0.3417382E+01
      0.4882883E+02       0.2847807E+01
      0.4900901E+02       0.2292074E+01
      0.4918919E+02       0.1769441E+01
      0.4936937E+02       0.1297283E+01
      0.4954955E+02       0.8905647E+00
      0.4972973E+02       0.5614280E+00
      0.4990991E+02       0.3188844E+00
      0.5009009E+02       0.1686289E+00
      0.5027027E+02       0.1129641E+00
      0.5045045E+02       0.1508324E+00
      0.5063063E+02       0.2779489E+00
      0.5081081E+02       0.4870290E+00
      0.5099099E+02       0.7680986E+00
      0.5117117E+02       0.1108881E+01
      0.5135135E+02       0.1495247E+01
      0.5153153E+02       0.1911717E+01
      0.5171171E+02       0.2342009E+01
      0.5189189E+02       0.2769601E+01
      0.5207207E+02       0.3178316E+01
      0.5225225E+02       0.3552894E+01
      0.5243243E+02       0.3879539E+01
      0.5261261E+02       0.4146419E+01
      0.5279279E+02       0.4344111E+01
      0.5297297E+02       0.4465953E+01
      0.5315315E+02       0.4508304E+01
      0.5333333E+02       0.4470686E+01
      0.5351351E+02       0.4355812E+01
      0.5369369E+02       0.4169476E+01
      0.5387387E+02       0.3920327E+01
      0.5405405E+02       0.3619508E+01
      0.5423423E+02       0.3280205E+01
      0.5441441E+02       0.2917090E+01
      0.5459459E+02       0.2545708E+01
      0.5477477E+02       0.2181812E+01
      0.5495495E+02       0.1840697E+01
      0.5513514E+02       0.1536547E+01
      0.5531532E+02       0.1281834E+01
      0.5549550E+02       0.1086788E+01
      0.5567568E+02       0.9589791E+00
      0.5585586E+02       0.9030062E+00
      0.5603604E+02       0.9203342E+00
      0.5621622E+02       0.1009265E+01
      0.5639640E+02       0.1165057E+01
      0.5657658E+02       0.1380176E+01
      0.5675676E+02       0.1644674E+01
      0.5693694E+02       0.1946673E+01
      0.5711712E+02       0.2272928E+01
      0.5729730E+02       0.2609446E+01
      0.5747748E+02       0.2942129E+01
      0.5765766E+02       0.3257407E+01
      0.5783784E+02       0.3542840E+01
      0.5801802E+02       0.3787651E+01
      0.5819820E+02       0.3983172E+01
      0.5837838E+02       0.4123176E+01
      0.5855856E+02       0.4204092E+01
      0.5873874E+02       0.4225085E+01
      0.5891892E+02       0.4188003E+01
      0.5909910E+02       0.4097196E+01
      0.5927928E+02       0.3959225E+01
      0.5945946E+02       0.3782465E+01
      0.5963964E+02       0.3576636E+01
      0.5981982E+02       0.3352287E+01
      0.6000000E+02       0.3120254E+01
      0.6018018E+02       0.2891123E+01
      0.6036036E+02       0.2674728E+01
      0.6054054E+02       0.2479709E+01
      0.6072072E+02       0.2313146E+01
      0.6090090E+02       0.2180287E+01
      0.6108108E+02       0.2084389E+01
      0.6126126E+02       0.2026664E+01
      0.6144144E+02       0.2006329E+01
      0.6162162E+02       0.2020768E+01
      0.6180180E+02       0.2065775E+01
      0.6198198E+02       0.2135869E+01
      0.6216216E+02       0.2224657E+01
      0.6234234E+02       0.2325231E+01
      0.6252252E+02       0.2430566E+01
      0.6270270E+02       0.2533897E+01
      0.6288288E+02       0.2629068E+01
      0.6306306E+02       0.2710819E+01
      0.6324324E+02       0.2775006E+01
      0.6342342E+02       0.2818751E+01
      0.6360360E+02       0.2840505E+01
      0.6378378E+02       0.2840040E+01
      0.6396396E+02       0.2818358E+01
      0.6414414E+02       0.2777547E+01
      0.6432432E+02       0.2720581E+01
      0.6450450E+02       0.2651079E+01
      0.6468468E+02       0.2573053E+01
      0.6486486E+02       0.2490645E+01
      0.6504505E+02       0.2407874E+01
      0.6522523E+02       0.2328411E+01
      0.6540541E+02       0.2255390E+01
      0.6558559E+02       0.2191259E+01
      0.6576577E+02       0.2137684E+01
      0.6594595E+02       0.2095506E+01
      0.6612613E+02       0.2064745E+01
      0.6630631E+02       0.2044650E+01
      0.6648649E+02       0.2033799E+01
      0.6666667E+02       0.2030217E+01
      0.6684685E+02       0.2031530E+01
      0.6702703E+02       0.2035127E+01
      0.6720721E+02       0.2038321E+01
      0.6738739E+02       0.2038518E+01
      0.6756757E+02       0.2033357E+01
      0.6774775E+02       0.2020842E+01
      0.6792793E+02       0.1999446E+01
      0.6810811E+02       0.1968187E+01
      0.6828829E+02       0.1926675E+01
      0.6846847E+02       0.1875130E+01
      0.6864865E+02       0.1814378E+01
      0.6882883E+02       0.1745816E+01
      0.6900901E+02       0.1671360E+01
      0.6918919E+02       0.1593371E+01
      0.6936937E+02       0.1514570E+01
      0.6954955E+02       0.1437938E+01
      0.6972973E+02       0.1366613E+01
      0.6990991E+02       0.1303776E+01
      0.7009009E+02       0.1252539E+01
      0.7027027E+02       0.1215827E+01
      0.7045045E+02       0.1196265E+01
      0.7063063E+02       0.1196073E+01
      0.7081081E+02       0.1216955E+01
      0.7099099E+02       0.1260013E+01
      0.7117117E+02       0.1325662E+01
      0.7135135E+02       0.1413565E+01
      0.7153153E+02       0.1522588E+01
      0.7171171E+02       0.1650778E+01
      0.7189189E+02       0.1795372E+01
      0.7207207E+02       0.1952829E+01
      0.7225225E+02       0.2118903E+01
      0.7243243E+02       0.2288749E+01
      0.7261261E+02       0.2457059E+01
      0.7279279E+02       0.2618234E+01
      0.7297297E+02       0.2766584E+01
      0.7315315E+02       0.2896555E+01
      0.7333333E+02       0.3002959E+01
      0.7351351E+02       0.3081227E+01
      0.7369369E+02       0.3127639E+01
      0.7387387E+02       0.3139550E+01
      0.7405405E+02       0.3115581E+01
      0.7423423E+02       0.3055771E+01
      0.7441441E+02       0.2961669E+01
      0.7459459E+02       0.2836382E+01
      0.7477477E+02       0.2684532E+01
      0.7495495E+02       0.2512160E+01
      0.7513514E+02       0.2326546E+01
      0.7531532E+02       0.2135964E+01
      0.7549550E+02       0.1949372E+01
      0.7567568E+02       0.1776052E+01
      0.7585586E+02       0.1625215E+01
      0.7603604E+02       0.1505578E+01
      0.7621622E+02       0.1424951E+01
      0.7639640E+02       0.1389832E+01
      0.7657658E+02       0.1405053E+01
      0.7675676E+02       0.1473477E+01
      0.7693694E+02       0.1595776E+01
      0.7711712E+02       0.1770306E+01
      0.7729730E+02       0.1993073E+01
      0.7747748E+02       0.2257816E+01
      0.7765766E+02       0.2556197E+01
      0.7783784E+02       0.2878095E+01
      0.7801802E+02       0.3211986E+01
      0.7819820E+02       0.3545409E+01
      0.7837838E+02       0.3865483E+01
      0.7855856E+02       0.4159464E+01
      0.7873874E+02       0.4415299E+01
      0.7891892E+02       0.4622175E+01
      0.7909910E+02       0.4771010E+01
      0.7927928E+02       0.4854879E+01
      0.7945946E+02       0.4869354E+01
      0.7963964E+02       0.4812727E+01
      0.7981982E+02       0.4686116E+01
      0.8000000E+02       0.4493446E+01
      0.8018018E+02       0.4241300E+01
      0.8036036E+02       0.3938656E+01
      0.8054054E+02       0.3596508E+01
      0.8072072E+02       0.3227407E+01
      0.8090090E+02       0.2844927E+01
      0.8108108E+02       0.2463092E+01
      0.8126126E+02       0.2095784E+01
      0.8144144E+02       0.1756175E+01
      0.8162162E+02       0.1456179E+01
      0.8180180E+02       0.1205988E+01
      0.8198198E+02       0.1013676E+01
      0.8216216E+02       0.8849160E+00
      0.8234234E+02       0.8227986E+00
      0.8252252E+02       0.8277739E+00
      0.8270270E+02       0.8977057E+00
      0.8288288E+02       0.1028036E+01
      0.8306306E+02       0.1212046E+01
      0.8324324E+02       0.1441201E+01
      0.8342342E+02       0.1705551E+01
      0.8360360E+02       0.1994179E+01
      0.8378378E+02       0.2295661E+01
      0.8396396E+02       0.2598526E+01
      0.8414414E+02       0.2891682E+01
      0.8432432E+02       0.3164811E+01
      0.8450450E+02       0.3408695E+01
      0.8468468E+02       0.3615480E+01
      0.8486486E+02       0.3778864E+01
      0.8504505E+02       0.3894211E+01
      0.8522523E+02       0.3958588E+01
      0.8540541E+02       0.3970747E+01
      0.8558559E+02       0.3931035E+01
      0.8576577E+02       0.3841276E+01
      0.8594595E+02       0.3704608E+01
      0.8612613E+02       0.3525311E+01
      0.8630631E+02       0.3308621E+01
      0.8648649E+02       0.3060551E+01
      0.8666667E+02       0.2787718E+01
      0.8684685E+02       0.2497193E+01
      0.8702703E+02       0.2196359E+01
      0.8720721E+02       0.1892795E+01
      0.8738739E+02       0.1594166E+01
      0.8756757E+02       0.1308123E+01
      0.8774775E+02       0.1042208E+01
      0.8792793E+02       0.8037448E+00
      0.8810811E+02       0.5997302E+00
      0.8828829E+02       0.4366984E+00
      0.8846847E+02       0.3205724E+00
      0.8864865E+02       0.2564946E+00
      0.8882883E+02       0.2486412E+00
      0.8900901E+02       0.3000281E+00
      0.8918919E+02       0.4123150E+00
      0.8936937E+02       0.5856213E+00
