 energy           1
 state =            1
 j12=           0
 m12=           0
          ANGLE,deg DIFF. CROSS.,angs^2
      0.0000000E+00       0.5447666E+05
      0.1801802E+00       0.5400793E+05
      0.3603604E+00       0.5262322E+05
      0.5405405E+00       0.5038557E+05
      0.7207207E+00       0.4739531E+05
      0.9009009E+00       0.4378343E+05
      0.1081081E+01       0.3970300E+05
      0.1261261E+01       0.3531954E+05
      0.1441441E+01       0.3080090E+05
      0.1621622E+01       0.2630758E+05
      0.1801802E+01       0.2198418E+05
      0.1981982E+01       0.1795246E+05
      0.2162162E+01       0.1430660E+05
      0.2342342E+01       0.1111072E+05
      0.2522523E+01       0.8398623E+04
      0.2702703E+01       0.6175750E+04
      0.2882883E+01       0.4422765E+04
      0.3063063E+01       0.3100444E+04
      0.3243243E+01       0.2155268E+04
      0.3423423E+01       0.1525205E+04
      0.3603604E+01       0.1145194E+04
      0.3783784E+01       0.9519247E+03
      0.3963964E+01       0.8876307E+03
      0.4144144E+01       0.9027535E+03
      0.4324324E+01       0.9574354E+03
      0.4504505E+01       0.1021935E+04
      0.4684685E+01       0.1076131E+04
      0.4864865E+01       0.1108353E+04
      0.5045045E+01       0.1113771E+04
      0.5225225E+01       0.1092617E+04
      0.5405405E+01       0.1048425E+04
      0.5585586E+01       0.9864825E+03
      0.5765766E+01       0.9125807E+03
      0.5945946E+01       0.8321291E+03
      0.6126126E+01       0.7496256E+03
      0.6306306E+01       0.6684402E+03
      0.6486486E+01       0.5908416E+03
      0.6666667E+01       0.5181830E+03
      0.6846847E+01       0.4511654E+03
      0.7027027E+01       0.3901062E+03
      0.7207207E+01       0.3351632E+03
      0.7387387E+01       0.2864815E+03
      0.7567568E+01       0.2442559E+03
      0.7747748E+01       0.2087168E+03
      0.7927928E+01       0.1800623E+03
      0.8108108E+01       0.1583622E+03
      0.8288288E+01       0.1434635E+03
      0.8468468E+01       0.1349212E+03
      0.8648649E+01       0.1319690E+03
      0.8828829E+01       0.1335384E+03
      0.9009009E+01       0.1383225E+03
      0.9189189E+01       0.1448753E+03
      0.9369369E+01       0.1517321E+03
      0.9549550E+01       0.1575334E+03
      0.9729730E+01       0.1611373E+03
      0.9909910E+01       0.1617052E+03
      0.1009009E+02       0.1587550E+03
      0.1027027E+02       0.1521756E+03
      0.1045045E+02       0.1422055E+03
      0.1063063E+02       0.1293811E+03
      0.1081081E+02       0.1144629E+03
      0.1099099E+02       0.9834890E+02
      0.1117117E+02       0.8198680E+02
      0.1135135E+02       0.6629153E+02
      0.1153153E+02       0.5207633E+02
      0.1171171E+02       0.4000083E+02
      0.1189189E+02       0.3053795E+02
      0.1207207E+02       0.2395926E+02
      0.1225225E+02       0.2033655E+02
      0.1243243E+02       0.1955668E+02
      0.1261261E+02       0.2134607E+02
      0.1279279E+02       0.2530137E+02
      0.1297297E+02       0.3092365E+02
      0.1315315E+02       0.3765340E+02
      0.1333333E+02       0.4490514E+02
      0.1351351E+02       0.5210022E+02
      0.1369369E+02       0.5869726E+02
      0.1387387E+02       0.6421968E+02
      0.1405405E+02       0.6827955E+02
      0.1423423E+02       0.7059728E+02
      0.1441441E+02       0.7101601E+02
      0.1459459E+02       0.6950996E+02
      0.1477477E+02       0.6618564E+02
      0.1495495E+02       0.6127536E+02
      0.1513514E+02       0.5512281E+02
      0.1531532E+02       0.4816089E+02
      0.1549550E+02       0.4088301E+02
      0.1567568E+02       0.3380936E+02
      0.1585586E+02       0.2745049E+02
      0.1603604E+02       0.2227090E+02
      0.1621622E+02       0.1865538E+02
      0.1639640E+02       0.1688087E+02
      0.1657658E+02       0.1709631E+02
      0.1675676E+02       0.1931187E+02
      0.1693694E+02       0.2339874E+02
      0.1711712E+02       0.2909934E+02
      0.1729730E+02       0.3604703E+02
      0.1747748E+02       0.4379352E+02
      0.1765766E+02       0.5184189E+02
      0.1783784E+02       0.5968223E+02
      0.1801802E+02       0.6682717E+02
      0.1819820E+02       0.7284465E+02
      0.1837838E+02       0.7738558E+02
      0.1855856E+02       0.8020459E+02
      0.1873874E+02       0.8117274E+02
      0.1891892E+02       0.8028189E+02
      0.1909910E+02       0.7764083E+02
      0.1927928E+02       0.7346407E+02
      0.1945946E+02       0.6805444E+02
      0.1963964E+02       0.6178120E+02
      0.1981982E+02       0.5505513E+02
      0.2000000E+02       0.4830250E+02
      0.2018018E+02       0.4193940E+02
      0.2036036E+02       0.3634781E+02
      0.2054054E+02       0.3185468E+02
      0.2072072E+02       0.2871495E+02
      0.2090090E+02       0.2709905E+02
      0.2108108E+02       0.2708545E+02
      0.2126126E+02       0.2865839E+02
      0.2144144E+02       0.3171070E+02
      0.2162162E+02       0.3605150E+02
      0.2180180E+02       0.4141836E+02
      0.2198198E+02       0.4749310E+02
      0.2216216E+02       0.5392063E+02
      0.2234234E+02       0.6032948E+02
      0.2252252E+02       0.6635328E+02
      0.2270270E+02       0.7165166E+02
      0.2288288E+02       0.7592954E+02
      0.2306306E+02       0.7895362E+02
      0.2324324E+02       0.8056508E+02
      0.2342342E+02       0.8068775E+02
      0.2360360E+02       0.7933118E+02
      0.2378378E+02       0.7658861E+02
      0.2396396E+02       0.7262983E+02
      0.2414414E+02       0.6768959E+02
      0.2432432E+02       0.6205238E+02
      0.2450450E+02       0.5603453E+02
      0.2468468E+02       0.4996494E+02
      0.2486486E+02       0.4416563E+02
      0.2504505E+02       0.3893339E+02
      0.2522523E+02       0.3452363E+02
      0.2540541E+02       0.3113732E+02
      0.2558559E+02       0.2891164E+02
      0.2576577E+02       0.2791476E+02
      0.2594595E+02       0.2814487E+02
      0.2612613E+02       0.2953313E+02
      0.2630631E+02       0.3195031E+02
      0.2648649E+02       0.3521626E+02
      0.2666667E+02       0.3911180E+02
      0.2684685E+02       0.4339195E+02
      0.2702703E+02       0.4779985E+02
      0.2720721E+02       0.5208057E+02
      0.2738739E+02       0.5599412E+02
      0.2756757E+02       0.5932706E+02
      0.2774775E+02       0.6190224E+02
      0.2792793E+02       0.6358638E+02
      0.2810811E+02       0.6429513E+02
      0.2828829E+02       0.6399566E+02
      0.2846847E+02       0.6270659E+02
      0.2864865E+02       0.6049552E+02
      0.2882883E+02       0.5747425E+02
      0.2900901E+02       0.5379203E+02
      0.2918919E+02       0.4962707E+02
      0.2936937E+02       0.4517690E+02
      0.2954955E+02       0.4064801E+02
      0.2972973E+02       0.3624513E+02
      0.2990991E+02       0.3216095E+02
      0.3009009E+02       0.2856660E+02
      0.3027027E+02       0.2560345E+02
      0.3045045E+02       0.2337666E+02
      0.3063063E+02       0.2195075E+02
      0.3081081E+02       0.2134747E+02
      0.3099099E+02       0.2154594E+02
      0.3117117E+02       0.2248511E+02
      0.3135135E+02       0.2406822E+02
      0.3153153E+02       0.2616907E+02
      0.3171171E+02       0.2863960E+02
      0.3189189E+02       0.3131829E+02
      0.3207207E+02       0.3403899E+02
      0.3225225E+02       0.3663955E+02
      0.3243243E+02       0.3896985E+02
      0.3261261E+02       0.4089887E+02
      0.3279279E+02       0.4232036E+02
      0.3297297E+02       0.4315702E+02
      0.3315315E+02       0.4336305E+02
      0.3333333E+02       0.4292497E+02
      0.3351351E+02       0.4186088E+02
      0.3369369E+02       0.4021829E+02
      0.3387387E+02       0.3807060E+02
      0.3405405E+02       0.3551267E+02
      0.3423423E+02       0.3265560E+02
      0.3441441E+02       0.2962096E+02
      0.3459459E+02       0.2653489E+02
      0.3477477E+02       0.2352219E+02
      0.3495495E+02       0.2070068E+02
      0.3513514E+02       0.1817607E+02
      0.3531532E+02       0.1603748E+02
      0.3549550E+02       0.1435381E+02
      0.3567568E+02       0.1317113E+02
      0.3585586E+02       0.1251104E+02
      0.3603604E+02       0.1237031E+02
      0.3621622E+02       0.1272148E+02
      0.3639640E+02       0.1351472E+02
      0.3657658E+02       0.1468066E+02
      0.3675676E+02       0.1613402E+02
      0.3693694E+02       0.1777811E+02
      0.3711712E+02       0.1950970E+02
      0.3729730E+02       0.2122416E+02
      0.3747748E+02       0.2282059E+02
      0.3765766E+02       0.2420667E+02
      0.3783784E+02       0.2530296E+02
      0.3801802E+02       0.2604649E+02
      0.3819820E+02       0.2639338E+02
      0.3837838E+02       0.2632050E+02
      0.3855856E+02       0.2582598E+02
      0.3873874E+02       0.2492863E+02
      0.3891892E+02       0.2366641E+02
      0.3909910E+02       0.2209392E+02
      0.3927928E+02       0.2027922E+02
      0.3945946E+02       0.1830007E+02
      0.3963964E+02       0.1623982E+02
      0.3981982E+02       0.1418326E+02
      0.4000000E+02       0.1221250E+02
      0.4018018E+02       0.1040317E+02
      0.4036036E+02       0.8821061E+01
      0.4054054E+02       0.7519405E+01
      0.4072072E+02       0.6536770E+01
      0.4090090E+02       0.5895765E+01
      0.4108108E+02       0.5602506E+01
      0.4126126E+02       0.5646855E+01
      0.4144144E+02       0.6003392E+01
      0.4162162E+02       0.6633056E+01
      0.4180180E+02       0.7485358E+01
      0.4198198E+02       0.8501049E+01
      0.4216216E+02       0.9615132E+01
      0.4234234E+02       0.1076005E+02
      0.4252252E+02       0.1186894E+02
      0.4270270E+02       0.1287875E+02
      0.4288288E+02       0.1373313E+02
      0.4306306E+02       0.1438494E+02
      0.4324324E+02       0.1479826E+02
      0.4342342E+02       0.1494981E+02
      0.4360360E+02       0.1482976E+02
      0.4378378E+02       0.1444180E+02
      0.4396396E+02       0.1380260E+02
      0.4414414E+02       0.1294064E+02
      0.4432432E+02       0.1189443E+02
      0.4450450E+02       0.1071038E+02
      0.4468468E+02       0.9440231E+01
      0.4486486E+02       0.8138360E+01
      0.4504505E+02       0.6859052E+01
      0.4522523E+02       0.5653830E+01
      0.4540541E+02       0.4569043E+01
      0.4558559E+02       0.3643795E+01
      0.4576577E+02       0.2908312E+01
      0.4594595E+02       0.2382812E+01
      0.4612613E+02       0.2076913E+01
      0.4630631E+02       0.1989583E+01
      0.4648649E+02       0.2109608E+01
      0.4666667E+02       0.2416528E+01
      0.4684685E+02       0.2881979E+01
      0.4702703E+02       0.3471351E+01
      0.4720721E+02       0.4145671E+01
      0.4738739E+02       0.4863604E+01
      0.4756757E+02       0.5583488E+01
      0.4774775E+02       0.6265290E+01
      0.4792793E+02       0.6872415E+01
      0.4810811E+02       0.7373275E+01
      0.4828829E+02       0.7742568E+01
      0.4846847E+02       0.7962220E+01
      0.4864865E+02       0.8021953E+01
      0.4882883E+02       0.7919474E+01
      0.4900901E+02       0.7660285E+01
      0.4918919E+02       0.7257140E+01
      0.4936937E+02       0.6729179E+01
      0.4954955E+02       0.6100795E+01
      0.4972973E+02       0.5400290E+01
      0.4990991E+02       0.4658395E+01
      0.5009009E+02       0.3906729E+01
      0.5027027E+02       0.3176263E+01
      0.5045045E+02       0.2495882E+01
      0.5063063E+02       0.1891093E+01
      0.5081081E+02       0.1382947E+01
      0.5099099E+02       0.9872222E+00
      0.5117117E+02       0.7138891E+00
      0.5135135E+02       0.5668825E+00
      0.5153153E+02       0.5441719E+00
      0.5171171E+02       0.6381149E+00
      0.5189189E+02       0.8360633E+00
      0.5207207E+02       0.1121179E+01
      0.5225225E+02       0.1473411E+01
      0.5243243E+02       0.1870568E+01
      0.5261261E+02       0.2289450E+01
      0.5279279E+02       0.2706958E+01
      0.5297297E+02       0.3101146E+01
      0.5315315E+02       0.3452170E+01
      0.5333333E+02       0.3743084E+01
      0.5351351E+02       0.3960476E+01
      0.5369369E+02       0.4094901E+01
      0.5387387E+02       0.4141128E+01
      0.5405405E+02       0.4098180E+01
      0.5423423E+02       0.3969191E+01
      0.5441441E+02       0.3761087E+01
      0.5459459E+02       0.3484119E+01
      0.5477477E+02       0.3151265E+01
      0.5495495E+02       0.2777548E+01
      0.5513514E+02       0.2379282E+01
      0.5531532E+02       0.1973303E+01
      0.5549550E+02       0.1576191E+01
      0.5567568E+02       0.1203549E+01
      0.5585586E+02       0.8693309E+00
      0.5603604E+02       0.5852866E+00
      0.5621622E+02       0.3605075E+00
      0.5639640E+02       0.2011173E+00
      0.5657658E+02       0.1101031E+00
      0.5675676E+02       0.8729597E-01
      0.5693694E+02       0.1294967E+00
      0.5711712E+02       0.2307348E+00
      0.5729730E+02       0.3826465E+00
      0.5747748E+02       0.5749480E+00
      0.5765766E+02       0.7959788E+00
      0.5783784E+02       0.1033288E+01
      0.5801802E+02       0.1274229E+01
      0.5819820E+02       0.1506546E+01
      0.5837838E+02       0.1718903E+01
      0.5855856E+02       0.1901362E+01
      0.5873874E+02       0.2045767E+01
      0.5891892E+02       0.2146030E+01
      0.5909910E+02       0.2198309E+01
      0.5927928E+02       0.2201087E+01
      0.5945946E+02       0.2155129E+01
      0.5963964E+02       0.2063353E+01
      0.5981982E+02       0.1930608E+01
      0.6000000E+02       0.1763379E+01
      0.6018018E+02       0.1569435E+01
      0.6036036E+02       0.1357438E+01
      0.6054054E+02       0.1136534E+01
      0.6072072E+02       0.9159363E+00
      0.6090090E+02       0.7045255E+00
      0.6108108E+02       0.5104780E+00
      0.6126126E+02       0.3409395E+00
      0.6144144E+02       0.2017521E+00
      0.6162162E+02       0.9724699E-01
      0.6180180E+02       0.3010764E-01
      0.6198198E+02       0.1307518E-02
      0.6216216E+02       0.1012331E-01
      0.6234234E+02       0.5422079E-01
      0.6252252E+02       0.1298082E+00
      0.6270270E+02       0.2318488E+00
      0.6288288E+02       0.3543221E+00
      0.6306306E+02       0.4905214E+00
      0.6324324E+02       0.6333723E+00
      0.6342342E+02       0.7757593E+00
      0.6360360E+02       0.9108437E+00
      0.6378378E+02       0.1032359E+01
      0.6396396E+02       0.1134871E+01
      0.6414414E+02       0.1213993E+01
      0.6432432E+02       0.1266543E+01
      0.6450450E+02       0.1290647E+01
      0.6468468E+02       0.1285771E+01
      0.6486486E+02       0.1252697E+01
      0.6504505E+02       0.1193442E+01
      0.6522523E+02       0.1111118E+01
      0.6540541E+02       0.1009758E+01
      0.6558559E+02       0.8940959E+00
      0.6576577E+02       0.7693373E+00
      0.6594595E+02       0.6409072E+00
      0.6612613E+02       0.5142054E+00
      0.6630631E+02       0.3943696E+00
      0.6648649E+02       0.2860602E+00
      0.6666667E+02       0.1932743E+00
      0.6684685E+02       0.1191949E+00
      0.6702703E+02       0.6608186E-01
      0.6720721E+02       0.3520631E-01
      0.6738739E+02       0.2683047E-01
      0.6756757E+02       0.4023152E-01
      0.6774775E+02       0.7376744E-01
      0.6792793E+02       0.1249804E+00
      0.6810811E+02       0.1907319E+00
      0.6828829E+02       0.2673636E+00
      0.6846847E+02       0.3508743E+00
      0.6864865E+02       0.4371075E+00
      0.6882883E+02       0.5219383E+00
      0.6900901E+02       0.6014533E+00
      0.6918919E+02       0.6721145E+00
      0.6936937E+02       0.7309010E+00
      0.6954955E+02       0.7754231E+00
      0.6972973E+02       0.8040036E+00
      0.6990991E+02       0.8157253E+00
      0.7009009E+02       0.8104418E+00
      0.7027027E+02       0.7887553E+00
      0.7045045E+02       0.7519604E+00
      0.7063063E+02       0.7019617E+00
      0.7081081E+02       0.6411661E+00
      0.7099099E+02       0.5723591E+00
      0.7117117E+02       0.4985695E+00
      0.7135135E+02       0.4229289E+00
      0.7153153E+02       0.3485341E+00
      0.7171171E+02       0.2783158E+00
      0.7189189E+02       0.2149205E+00
      0.7207207E+02       0.1606101E+00
      0.7225225E+02       0.1171813E+00
      0.7243243E+02       0.8590767E-01
      0.7261261E+02       0.6750695E-01
      0.7279279E+02       0.6213153E-01
      0.7297297E+02       0.6938338E-01
      0.7315315E+02       0.8835086E-01
      0.7333333E+02       0.1176654E+00
      0.7351351E+02       0.1555750E+00
      0.7369369E+02       0.2000306E+00
      0.7387387E+02       0.2487823E+00
      0.7405405E+02       0.2994806E+00
      0.7423423E+02       0.3497778E+00
      0.7441441E+02       0.3974268E+00
      0.7459459E+02       0.4403724E+00
      0.7477477E+02       0.4768309E+00
      0.7495495E+02       0.5053564E+00
      0.7513514E+02       0.5248898E+00
      0.7531532E+02       0.5347901E+00
      0.7549550E+02       0.5348464E+00
      0.7567568E+02       0.5252708E+00
      0.7585586E+02       0.5066736E+00
      0.7603604E+02       0.4800222E+00
      0.7621622E+02       0.4465856E+00
      0.7639640E+02       0.4078691E+00
      0.7657658E+02       0.3655409E+00
      0.7675676E+02       0.3213552E+00
      0.7693694E+02       0.2770751E+00
      0.7711712E+02       0.2343989E+00
      0.7729730E+02       0.1948924E+00
      0.7747748E+02       0.1599307E+00
      0.7765766E+02       0.1306498E+00
      0.7783784E+02       0.1079118E+00
      0.7801802E+02       0.9228204E-01
      0.7819820E+02       0.8402015E-01
      0.7837838E+02       0.8308318E-01
      0.7855856E+02       0.8914094E-01
      0.7873874E+02       0.1016017E+00
      0.7891892E+02       0.1196468E+00
      0.7909910E+02       0.1422721E+00
      0.7927928E+02       0.1683349E+00
      0.7945946E+02       0.1966038E+00
      0.7963964E+02       0.2258096E+00
      0.7981982E+02       0.2546955E+00
      0.8000000E+02       0.2820648E+00
      0.8018018E+02       0.3068248E+00
      0.8036036E+02       0.3280241E+00
      0.8054054E+02       0.3448847E+00
      0.8072072E+02       0.3568248E+00
      0.8090090E+02       0.3634748E+00
      0.8108108E+02       0.3646839E+00
      0.8126126E+02       0.3605179E+00
      0.8144144E+02       0.3512499E+00
      0.8162162E+02       0.3373417E+00
      0.8180180E+02       0.3194203E+00
      0.8198198E+02       0.2982471E+00
      0.8216216E+02       0.2746843E+00
      0.8234234E+02       0.2496579E+00
      0.8252252E+02       0.2241196E+00
      0.8270270E+02       0.1990091E+00
      0.8288288E+02       0.1752186E+00
      0.8306306E+02       0.1535601E+00
      0.8324324E+02       0.1347374E+00
      0.8342342E+02       0.1193233E+00
      0.8360360E+02       0.1077425E+00
      0.8378378E+02       0.1002613E+00
      0.8396396E+02       0.9698340E-01
      0.8414414E+02       0.9785211E-01
      0.8432432E+02       0.1026586E+00
      0.8450450E+02       0.1110552E+00
      0.8468468E+02       0.1225737E+00
      0.8486486E+02       0.1366469E+00
      0.8504505E+02       0.1526336E+00
      0.8522523E+02       0.1698446E+00
      0.8540541E+02       0.1875699E+00
      0.8558559E+02       0.2051058E+00
      0.8576577E+02       0.2217803E+00
      0.8594595E+02       0.2369768E+00
      0.8612613E+02       0.2501547E+00
      0.8630631E+02       0.2608668E+00
      0.8648649E+02       0.2687722E+00
      0.8666667E+02       0.2736453E+00
      0.8684685E+02       0.2753801E+00
      0.8702703E+02       0.2739899E+00
      0.8720721E+02       0.2696022E+00
      0.8738739E+02       0.2624510E+00
      0.8756757E+02       0.2528635E+00
      0.8774775E+02       0.2412455E+00
      0.8792793E+02       0.2280639E+00
      0.8810811E+02       0.2138272E+00
      0.8828829E+02       0.1990663E+00
      0.8846847E+02       0.1843144E+00
      0.8864865E+02       0.1700878E+00
      0.8882883E+02       0.1568685E+00
      0.8900901E+02       0.1450880E+00
      0.8918919E+02       0.1351142E+00
      0.8936937E+02       0.1272404E+00
