STATE= 1
j12= 0
m12= 0
ENERGY#1, U(i)= 100.000 cm^-1
J_TOTAL     CHANNEL=  1  CHANNEL=  2  CHANNEL=  3  CHANNEL=  4  CHANNEL=  5  CHANNEL=  6  CHANNEL=  7  CHANNEL=  8  CHANNEL=  9  CHANNEL= 10  
    0    0.28544E-01  0.00000E+00  0.11459E-01  0.00000E+00  0.28689E-02  0.00000E+00  0.62483E-02  0.00000E+00  0.28934E-02  0.00000E+00 
    1    0.85857E-01  0.00000E+00  0.34201E-01  0.00000E+00  0.86358E-02  0.00000E+00  0.18700E-01  0.00000E+00  0.86438E-02  0.00000E+00 
    2    0.14384E+00  0.00000E+00  0.56423E-01  0.00000E+00  0.14494E-01  0.00000E+00  0.31017E-01  0.00000E+00  0.14286E-01  0.00000E+00 
    3    0.20294E+00  0.00000E+00  0.77781E-01  0.00000E+00  0.20514E-01  0.00000E+00  0.43108E-01  0.00000E+00  0.19749E-01  0.00000E+00 
    4    0.26353E+00  0.00000E+00  0.97944E-01  0.00000E+00  0.26787E-01  0.00000E+00  0.54882E-01  0.00000E+00  0.24968E-01  0.00000E+00 
    5    0.32599E+00  0.00000E+00  0.11660E+00  0.00000E+00  0.33423E-01  0.00000E+00  0.66248E-01  0.00000E+00  0.29879E-01  0.00000E+00 
    6    0.39061E+00  0.00000E+00  0.13345E+00  0.00000E+00  0.40564E-01  0.00000E+00  0.77111E-01  0.00000E+00  0.34425E-01  0.00000E+00 
    7    0.45760E+00  0.00000E+00  0.14827E+00  0.00000E+00  0.48385E-01  0.00000E+00  0.87376E-01  0.00000E+00  0.38558E-01  0.00000E+00 
    8    0.52706E+00  0.00000E+00  0.16088E+00  0.00000E+00  0.57093E-01  0.00000E+00  0.96946E-01  0.00000E+00  0.42234E-01  0.00000E+00 
    9    0.59897E+00  0.00000E+00  0.17120E+00  0.00000E+00  0.66935E-01  0.00000E+00  0.10572E+00  0.00000E+00  0.45419E-01  0.00000E+00 
   10    0.67312E+00  0.00000E+00  0.17927E+00  0.00000E+00  0.78189E-01  0.00000E+00  0.11359E+00  0.00000E+00  0.48088E-01  0.00000E+00 
   11    0.74911E+00  0.00000E+00  0.18532E+00  0.00000E+00  0.91163E-01  0.00000E+00  0.12047E+00  0.00000E+00  0.50224E-01  0.00000E+00 
   12    0.82629E+00  0.00000E+00  0.18979E+00  0.00000E+00  0.10618E+00  0.00000E+00  0.12624E+00  0.00000E+00  0.51820E-01  0.00000E+00 
   13    0.90373E+00  0.00000E+00  0.19338E+00  0.00000E+00  0.12355E+00  0.00000E+00  0.13080E+00  0.00000E+00  0.52876E-01  0.00000E+00 
   14    0.98015E+00  0.00000E+00  0.19714E+00  0.00000E+00  0.14360E+00  0.00000E+00  0.13408E+00  0.00000E+00  0.53403E-01  0.00000E+00 
   15    0.10540E+01  0.00000E+00  0.20247E+00  0.00000E+00  0.16655E+00  0.00000E+00  0.13599E+00  0.00000E+00  0.53417E-01  0.00000E+00 
   16    0.11232E+01  0.00000E+00  0.21122E+00  0.00000E+00  0.19260E+00  0.00000E+00  0.13650E+00  0.00000E+00  0.52943E-01  0.00000E+00 
   17    0.11854E+01  0.00000E+00  0.22565E+00  0.00000E+00  0.22179E+00  0.00000E+00  0.13560E+00  0.00000E+00  0.52009E-01  0.00000E+00 
   18    0.12380E+01  0.00000E+00  0.24846E+00  0.00000E+00  0.25404E+00  0.00000E+00  0.13335E+00  0.00000E+00  0.50654E-01  0.00000E+00 
   19    0.12779E+01  0.00000E+00  0.28268E+00  0.00000E+00  0.28912E+00  0.00000E+00  0.12988E+00  0.00000E+00  0.48913E-01  0.00000E+00 
   20    0.13021E+01  0.00000E+00  0.33157E+00  0.00000E+00  0.32664E+00  0.00000E+00  0.12539E+00  0.00000E+00  0.46813E-01  0.00000E+00 
   21    0.13076E+01  0.00000E+00  0.39836E+00  0.00000E+00  0.36609E+00  0.00000E+00  0.12016E+00  0.00000E+00  0.44383E-01  0.00000E+00 
   22    0.12914E+01  0.00000E+00  0.48602E+00  0.00000E+00  0.40689E+00  0.00000E+00  0.11462E+00  0.00000E+00  0.41645E-01  0.00000E+00 
   23    0.12514E+01  0.00000E+00  0.59677E+00  0.00000E+00  0.44856E+00  0.00000E+00  0.10926E+00  0.00000E+00  0.38622E-01  0.00000E+00 
   24    0.11862E+01  0.00000E+00  0.73157E+00  0.00000E+00  0.49082E+00  0.00000E+00  0.10472E+00  0.00000E+00  0.35340E-01  0.00000E+00 
   25    0.10958E+01  0.00000E+00  0.88937E+00  0.00000E+00  0.53393E+00  0.00000E+00  0.10170E+00  0.00000E+00  0.31832E-01  0.00000E+00 
   26    0.98205E+00  0.00000E+00  0.10666E+01  0.00000E+00  0.57896E+00  0.00000E+00  0.10092E+00  0.00000E+00  0.28126E-01  0.00000E+00 
   27    0.84871E+00  0.00000E+00  0.12566E+01  0.00000E+00  0.62816E+00  0.00000E+00  0.10302E+00  0.00000E+00  0.24261E-01  0.00000E+00 
   28    0.70196E+00  0.00000E+00  0.14487E+01  0.00000E+00  0.68520E+00  0.00000E+00  0.10856E+00  0.00000E+00  0.20305E-01  0.00000E+00 
   29    0.55048E+00  0.00000E+00  0.16285E+01  0.00000E+00  0.75551E+00  0.00000E+00  0.11789E+00  0.00000E+00  0.16363E-01  0.00000E+00 
   30    0.40508E+00  0.00000E+00  0.17781E+01  0.00000E+00  0.84608E+00  0.00000E+00  0.13094E+00  0.00000E+00  0.12564E-01  0.00000E+00 
   31    0.27836E+00  0.00000E+00  0.18776E+01  0.00000E+00  0.96472E+00  0.00000E+00  0.14709E+00  0.00000E+00  0.90688E-02  0.00000E+00 
   32    0.18456E+00  0.00000E+00  0.19067E+01  0.00000E+00  0.11186E+01  0.00000E+00  0.16497E+00  0.00000E+00  0.60728E-02  0.00000E+00 
   33    0.14002E+00  0.00000E+00  0.18488E+01  0.00000E+00  0.13103E+01  0.00000E+00  0.18199E+00  0.00000E+00  0.37656E-02  0.00000E+00 
   34    0.16660E+00  0.00000E+00  0.16947E+01  0.00000E+00  0.15315E+01  0.00000E+00  0.19374E+00  0.00000E+00  0.22910E-02  0.00000E+00 
   35    0.30108E+00  0.00000E+00  0.14450E+01  0.00000E+00  0.17514E+01  0.00000E+00  0.19373E+00  0.00000E+00  0.17111E-02  0.00000E+00 
   36    0.60971E+00  0.00000E+00  0.11075E+01  0.00000E+00  0.19028E+01  0.00000E+00  0.17505E+00  0.00000E+00  0.19207E-02  0.00000E+00 
   37    0.11808E+01  0.00000E+00  0.68889E+00  0.00000E+00  0.18930E+01  0.00000E+00  0.13573E+00  0.00000E+00  0.25086E-02  0.00000E+00 
   38    0.19760E+01  0.00000E+00  0.26622E+00  0.00000E+00  0.16776E+01  0.00000E+00  0.82273E-01  0.00000E+00  0.28446E-02  0.00000E+00 
   39    0.26025E+01  0.00000E+00  0.20311E+00  0.00000E+00  0.12708E+01  0.00000E+00  0.30283E-01  0.00000E+00  0.23091E-02  0.00000E+00 
   40    0.19006E+01  0.00000E+00  0.14788E+01  0.00000E+00  0.82431E+00  0.00000E+00  0.85927E-02  0.00000E+00  0.77346E-03  0.00000E+00 
   41    0.17052E+00  0.00000E+00  0.39828E+01  0.00000E+00  0.16369E+00  0.00000E+00  0.20707E-05  0.00000E+00  0.16105E-12  0.00000E+00 
   42    0.16358E+01  0.00000E+00  0.27385E+01  0.00000E+00  0.46757E-01  0.00000E+00  0.16991E-05  0.00000E+00  0.11534E-12  0.00000E+00 
   43    0.26485E+01  0.00000E+00  0.18607E+01  0.00000E+00  0.15902E-01  0.00000E+00  0.36796E-06  0.00000E+00  0.12364E-13  0.00000E+00 
   44    0.33170E+01  0.00000E+00  0.13060E+01  0.00000E+00  0.61674E-02  0.00000E+00  0.76839E-07  0.00000E+00  0.10783E-14  0.00000E+00 
   45    0.37878E+01  0.00000E+00  0.94277E+00  0.00000E+00  0.26076E-02  0.00000E+00  0.16666E-07  0.00000E+00  0.33815E-15  0.00000E+00 
   46    0.41402E+01  0.00000E+00  0.69584E+00  0.00000E+00  0.11709E-02  0.00000E+00  0.37627E-08  0.00000E+00  0.13463E-15  0.00000E+00 
   47    0.44180E+01  0.00000E+00  0.52269E+00  0.00000E+00  0.54936E-03  0.00000E+00  0.88464E-09  0.00000E+00  0.44450E-16  0.00000E+00 
   48    0.46468E+01  0.00000E+00  0.39821E+00  0.00000E+00  0.26643E-03  0.00000E+00  0.22079E-09  0.00000E+00  0.12810E-16  0.00000E+00 
   49    0.48423E+01  0.00000E+00  0.30686E+00  0.00000E+00  0.13256E-03  0.00000E+00  0.61697E-10  0.00000E+00  0.33963E-17  0.00000E+00 
   50    0.50145E+01  0.00000E+00  0.23871E+00  0.00000E+00  0.67285E-04  0.00000E+00  0.20832E-10  0.00000E+00  0.87344E-18  0.00000E+00 
   51    0.51701E+01  0.00000E+00  0.18714E+00  0.00000E+00  0.34703E-04  0.00000E+00  0.87579E-11  0.00000E+00  0.24257E-18  0.00000E+00 
   52    0.53136E+01  0.00000E+00  0.14766E+00  0.00000E+00  0.18134E-04  0.00000E+00  0.43244E-11  0.00000E+00  0.87651E-19  0.00000E+00 
   53    0.54482E+01  0.00000E+00  0.11714E+00  0.00000E+00  0.95816E-05  0.00000E+00  0.23053E-11  0.00000E+00  0.44404E-19  0.00000E+00 
   54    0.55760E+01  0.00000E+00  0.93339E-01  0.00000E+00  0.51150E-05  0.00000E+00  0.12572E-11  0.00000E+00  0.27068E-19  0.00000E+00 
   55    0.56988E+01  0.00000E+00  0.74641E-01  0.00000E+00  0.27595E-05  0.00000E+00  0.68540E-12  0.00000E+00  0.17090E-19  0.00000E+00 
   56    0.58176E+01  0.00000E+00  0.59860E-01  0.00000E+00  0.15071E-05  0.00000E+00  0.37109E-12  0.00000E+00  0.10550E-19  0.00000E+00 
   57    0.59333E+01  0.00000E+00  0.48111E-01  0.00000E+00  0.83608E-06  0.00000E+00  0.19970E-12  0.00000E+00  0.63333E-20  0.00000E+00 
   58    0.60468E+01  0.00000E+00  0.38727E-01  0.00000E+00  0.47366E-06  0.00000E+00  0.10728E-12  0.00000E+00  0.37451E-20  0.00000E+00 
   59    0.61583E+01  0.00000E+00  0.31203E-01  0.00000E+00  0.27591E-06  0.00000E+00  0.57899E-13  0.00000E+00  0.22057E-20  0.00000E+00 
   60    0.62684E+01  0.00000E+00  0.25148E-01  0.00000E+00  0.16646E-06  0.00000E+00  0.31647E-13  0.00000E+00  0.12742E-20  0.00000E+00 
   61    0.63773E+01  0.00000E+00  0.20261E-01  0.00000E+00  0.10463E-06  0.00000E+00  0.17674E-13  0.00000E+00  0.69649E-21  0.00000E+00 
   62    0.64853E+01  0.00000E+00  0.16307E-01  0.00000E+00  0.68675E-07  0.00000E+00  0.10171E-13  0.00000E+00  0.35885E-21  0.00000E+00 
   63    0.65925E+01  0.00000E+00  0.13103E-01  0.00000E+00  0.46952E-07  0.00000E+00  0.60680E-14  0.00000E+00  0.19193E-21  0.00000E+00 
   64    0.66991E+01  0.00000E+00  0.10502E-01  0.00000E+00  0.33205E-07  0.00000E+00  0.37577E-14  0.00000E+00  0.11620E-21  0.00000E+00 
   65    0.68053E+01  0.00000E+00  0.83889E-02  0.00000E+00  0.24065E-07  0.00000E+00  0.24044E-14  0.00000E+00  0.67795E-22  0.00000E+00 
   66    0.69110E+01  0.00000E+00  0.66717E-02  0.00000E+00  0.17699E-07  0.00000E+00  0.15749E-14  0.00000E+00  0.32627E-22  0.00000E+00 
   67    0.70164E+01  0.00000E+00  0.52765E-02  0.00000E+00  0.13091E-07  0.00000E+00  0.10450E-14  0.00000E+00  0.19604E-22  0.00000E+00 
   68    0.71216E+01  0.00000E+00  0.41439E-02  0.00000E+00  0.96635E-08  0.00000E+00  0.69812E-15  0.00000E+00  0.17699E-22  0.00000E+00 
   69    0.72265E+01  0.00000E+00  0.32258E-02  0.00000E+00  0.70719E-08  0.00000E+00  0.47032E-15  0.00000E+00  0.12606E-22  0.00000E+00 
   70    0.73313E+01  0.00000E+00  0.24835E-02  0.00000E+00  0.50977E-08  0.00000E+00  0.32140E-15  0.00000E+00  0.10026E-22  0.00000E+00 
   71    0.74359E+01  0.00000E+00  0.18853E-02  0.00000E+00  0.35944E-08  0.00000E+00  0.22196E-15  0.00000E+00  0.11126E-22  0.00000E+00 
   72    0.75404E+01  0.00000E+00  0.14059E-02  0.00000E+00  0.24580E-08  0.00000E+00  0.15065E-15  0.00000E+00  0.82225E-23  0.00000E+00 
   73    0.76448E+01  0.00000E+00  0.10244E-02  0.00000E+00  0.16124E-08  0.00000E+00  0.95665E-16  0.00000E+00  0.70776E-23  0.00000E+00 
   74    0.77492E+01  0.00000E+00  0.72401E-03  0.00000E+00  0.99970E-09  0.00000E+00  0.54370E-16  0.00000E+00  0.82291E-23  0.00000E+00 
   75    0.78534E+01  0.00000E+00  0.49110E-03  0.00000E+00  0.57406E-09  0.00000E+00  0.28128E-16  0.00000E+00  0.41330E-23  0.00000E+00 
   76    0.79576E+01  0.00000E+00  0.31465E-03  0.00000E+00  0.29637E-09  0.00000E+00  0.15090E-16  0.00000E+00  0.51928E-23  0.00000E+00 
   77    0.80618E+01  0.00000E+00  0.18567E-03  0.00000E+00  0.13121E-09  0.00000E+00  0.84817E-17  0.00000E+00  0.24193E-23  0.00000E+00 
   78    0.81659E+01  0.00000E+00  0.96582E-04  0.00000E+00  0.45771E-10  0.00000E+00  0.31455E-17  0.00000E+00  0.26687E-23  0.00000E+00 
   79    0.82700E+01  0.00000E+00  0.40679E-04  0.00000E+00  0.10616E-10  0.00000E+00  0.63756E-18  0.00000E+00  0.98767E-24  0.00000E+00 
   80    0.83740E+01  0.00000E+00  0.11319E-04  0.00000E+00  0.11644E-11  0.00000E+00  0.36659E-18  0.00000E+00  0.38744E-24  0.00000E+00 
   81    0.84781E+01  0.00000E+00  0.97821E-06  0.00000E+00  0.64045E-13  0.00000E+00  0.44792E-19  0.00000E+00  0.19902E-24  0.00000E+00 
   82    0.85821E+01  0.00000E+00  0.00000E+00  0.00000E+00  0.00000E+00  0.00000E+00  0.00000E+00  0.00000E+00  0.00000E+00  0.00000E+00 
